;RAW4.00
[RawHeader]
Date=04/22/2019
EstimatedTotalTime=2310.8
FurtherDQLReading=0
HardwareIndicator=65519
MeasuredTotalTime=2310.8
MeasurementFlag=1
NumberOfMeasuredRanges=1
NumberOfRanges=1
Time=09:33:37

[VarInfo]
Type=USER
Flags=0
Value=Bruker Service

[VarInfo]
Type=SAMPLEID
Flags=0
Value=Commander Sample ID

[VarInfo]
Type=COMMENT
Flags=0
Value=

[VarInfo]
Type=UTF
Flags=0
Value=

[VarInfo]
Type=CREATOR
Flags=0
Value=BrmlToV4Converter

[VarInfo]
Type=CREATOR_VERSION
Flags=0
Value=7.3.0.0

[HardwareConfiguration]
AbsorptionFactor=9999
ActivateAbsorber=0
Alpha1=1.78897
Alpha2=1.79285
AlphaAverage=1.79026
AlphaRatio=0.5
Analyzer=0
Anode=Co
AntiScatteringSlit=9999
BeamOpticsFlags=0
Beta=1.62079
BetaRelativeIntensity=0
DeactivateAbsorber=0
DetectorSlit=9999
DivergenceSlit=1
GoniometerControl=0
GoniometerDiameter=282
GoniometerModel=256
GoniometerStage=7
Monochromator=0
NearSampleSlit=9999
PrimarySollerSlit=9999
SampleChanger=0
SecondSollerSlit=9999
SynchronousAxis=0
ThinFilmAttachment=9999
WaveUnit=A

[RangeHeader]
ActuallyUsedLambda=1.79026
AdditionalDetectorMask=257
DataRecordLength=4
DelayTime=0
DisplayPlaneNumber=0
EstimatedScanTime=2311
ExtraParametersMask=0
GeneratorCurrent=10
GeneratorVoltage=30
Increment=0.0303281
Increment3=0
NumberOfCompletedData=2144
NumberOfCounts=1
NumberOfDetectors=0
NumberOfDrives=2
NumberOfEncoderDrives=0
NumberOfMeasuredData=2144
NumberOfVaryingParameters=0
RangeStartTime=0
RotationSpeed=1
ScanMode=1
ScanType=Locked Coupled
SimulatedMeasConditions=0
SlitChangerIn=0
SmootingWidth=0
Start=5.00234
Steps=2144
SynchronousRotation=0
Time=165

[VarInfo]
Type=PSD_DISCRIM
Flags=0
Value=0.11;0.25

[PSD]
ActualTwoTheta=9999
FirstUsedChannel=0
FixedPSD=0
PSDOpening=5.00414
PSDType=5

[Drive]
DriveFlags=1
DriveName=2Theta
DriveNumber=2
DriveOffset=0
OffsetIndex=0
OscillationAmplitude=0
OscillationSpeed=0
StartPosition=5.00234

[Drive]
DriveFlags=1
DriveName=Theta
DriveNumber=1
DriveOffset=0
OffsetIndex=0
OscillationAmplitude=0
OscillationSpeed=0
StartPosition=2.50117

[Data]
     Angle,       PSD,
   5.00234,      8384,
   5.03267,      8224,
     5.063,      8039,
   5.09333,      7995,
   5.12365,      7947,
   5.15398,      7708,
   5.18431,      7734,
   5.21464,      7505,
   5.24497,      7454,
   5.27529,      7435,
   5.30562,      7181,
   5.33595,      7113,
   5.36628,      6939,
   5.39661,      6778,
   5.42694,      6740,
   5.45726,      6915,
   5.48759,      6529,
   5.51792,      6554,
   5.54825,      6422,
   5.57858,      6407,
    5.6089,      6230,
   5.63923,      6244,
   5.66956,      6236,
   5.69989,      6026,
   5.73022,      5874,
   5.76055,      5794,
   5.79087,      5720,
    5.8212,      5685,
   5.85153,      5475,
   5.88186,      5544,
   5.91219,      5465,
   5.94251,      5271,
   5.97284,      5199,
   6.00317,      5154,
    6.0335,      4987,
   6.06383,      4897,
   6.09415,      4828,
   6.12448,      4777,
   6.15481,      4726,
   6.18514,      4630,
   6.21547,      4638,
    6.2458,      4434,
   6.27612,      4498,
   6.30645,      4276,
   6.33678,      4400,
   6.36711,      4299,
   6.39744,      4100,
   6.42776,      4097,
   6.45809,      4173,
   6.48842,      4333,
   6.51875,      4070,
   6.54908,      3897,
    6.5794,      4001,
   6.60973,      3886,
   6.64006,      3941,
   6.67039,      3702,
   6.70072,      3772,
   6.73105,      3693,
   6.76137,      3731,
    6.7917,      3669,
   6.82203,      3613,
   6.85236,      3495,
   6.88269,      3447,
   6.91301,      3374,
   6.94334,      3445,
   6.97367,      3348,
     7.004,      3352,
   7.03433,      3340,
   7.06466,      3275,
   7.09498,      3170,
   7.12531,      3023,
   7.15564,      3113,
   7.18597,      2987,
    7.2163,      2984,
   7.24662,      3067,
   7.27695,      2819,
   7.30728,      2945,
   7.33761,      2860,
   7.36794,      2855,
   7.39826,      2841,
   7.42859,      2761,
   7.45892,      2755,
   7.48925,      2750,
   7.51958,      2632,
   7.54991,      2712,
   7.58023,      2690,
   7.61056,      2585,
   7.64089,      2565,
   7.67122,      2564,
   7.70155,      2532,
   7.73187,      2408,
    7.7622,      2381,
   7.79253,      2507,
   7.82286,      2400,
   7.85319,      2365,
   7.88352,      2362,
   7.91384,      2253,
   7.94417,      2299,
    7.9745,      2350,
   8.00483,      2332,
   8.03516,      2209,
   8.06548,      2207,
   8.09581,      2250,
   8.12614,      2264,
   8.15647,      2167,
    8.1868,      2146,
   8.21712,      2252,
   8.24745,      2142,
   8.27778,      2179,
   8.30811,      2084,
   8.33844,      2044,
   8.36877,      2018,
   8.39909,      2069,
   8.42942,      2004,
   8.45975,      1982,
   8.49008,      2030,
   8.52041,      2051,
   8.55073,      1973,
   8.58106,      1950,
   8.61139,      1988,
   8.64172,      1940,
   8.67205,      1940,
   8.70237,      1970,
    8.7327,      1948,
   8.76303,      1824,
   8.79336,      1842,
   8.82369,      1784,
   8.85402,      1772,
   8.88434,      1740,
   8.91467,      1721,
     8.945,      1786,
   8.97533,      1666,
   9.00566,      1730,
   9.03598,      1687,
   9.06631,      1722,
   9.09664,      1540,
   9.12697,      1617,
    9.1573,      1561,
   9.18763,      1592,
   9.21795,      1548,
   9.24828,      1536,
   9.27861,      1509,
   9.30894,      1549,
   9.33927,      1512,
   9.36959,      1493,
   9.39992,      1458,
   9.43025,      1391,
   9.46058,      1407,
   9.49091,      1429,
   9.52123,      1438,
   9.55156,      1415,
   9.58189,      1411,
   9.61222,      1383,
   9.64255,      1307,
   9.67288,      1389,
    9.7032,      1358,
   9.73353,      1363,
   9.76386,      1318,
   9.79419,      1309,
   9.82452,      1288,
   9.85484,      1361,
   9.88517,      1378,
    9.9155,      1403,
   9.94583,      1293,
   9.97616,      1266,
   10.0065,      1274,
   10.0368,      1239,
   10.0671,      1296,
   10.0975,      1326,
   10.1278,      1292,
   10.1581,      1283,
   10.1885,      1225,
   10.2188,      1261,
   10.2491,      1287,
   10.2794,      1253,
   10.3098,      1242,
   10.3401,      1224,
   10.3704,      1286,
   10.4008,      1240,
   10.4311,      1194,
   10.4614,      1278,
   10.4917,      1202,
   10.5221,      1199,
   10.5524,      1234,
   10.5827,      1260,
    10.613,      1191,
   10.6434,      1119,
   10.6737,      1144,
    10.704,      1158,
   10.7344,      1207,
   10.7647,      1134,
    10.795,      1085,
   10.8253,      1156,
   10.8557,      1204,
    10.886,      1158,
   10.9163,      1113,
   10.9467,      1114,
    10.977,      1095,
   11.0073,      1138,
   11.0376,      1115,
    11.068,      1156,
   11.0983,      1095,
   11.1286,      1110,
    11.159,      1084,
   11.1893,      1103,
   11.2196,      1097,
   11.2499,      1068,
   11.2803,      1082,
   11.3106,      1090,
   11.3409,      1070,
   11.3713,      1092,
   11.4016,      1068,
   11.4319,      1055,
   11.4622,      1017,
   11.4926,      1091,
   11.5229,      1103,
   11.5532,      1042,
   11.5835,      1087,
   11.6139,      1042,
   11.6442,      1052,
   11.6745,      1070,
   11.7049,      1052,
   11.7352,      1053,
   11.7655,      1011,
   11.7958,       938,
   11.8262,      1016,
   11.8565,      1056,
   11.8868,      1087,
   11.9172,      1020,
   11.9475,      1039,
   11.9778,      1057,
   12.0081,      1009,
   12.0385,       979,
   12.0688,       984,
   12.0991,      1019,
   12.1295,       986,
   12.1598,      1009,
   12.1901,      1031,
   12.2204,       948,
   12.2508,      1006,
   12.2811,      1014,
   12.3114,       973,
   12.3418,       990,
   12.3721,       949,
   12.4024,       999,
   12.4327,       937,
   12.4631,       974,
   12.4934,       940,
   12.5237,       941,
    12.554,       993,
   12.5844,      1015,
   12.6147,       999,
    12.645,       987,
   12.6754,       970,
   12.7057,       961,
    12.736,      1055,
   12.7663,       904,
   12.7967,      1008,
    12.827,       908,
   12.8573,       910,
   12.8877,       918,
    12.918,       935,
   12.9483,       888,
   12.9786,       976,
    13.009,       915,
   13.0393,       914,
   13.0696,       973,
      13.1,       973,
   13.1303,       915,
   13.1606,       880,
   13.1909,       891,
   13.2213,       871,
   13.2516,       906,
   13.2819,       933,
   13.3123,       953,
   13.3426,       870,
   13.3729,       918,
   13.4032,       896,
   13.4336,       858,
   13.4639,       895,
   13.4942,       871,
   13.5245,       901,
   13.5549,       864,
   13.5852,       920,
   13.6155,       862,
   13.6459,       866,
   13.6762,       881,
   13.7065,       857,
   13.7368,       883,
   13.7672,       935,
   13.7975,       827,
   13.8278,       855,
   13.8582,       874,
   13.8885,       815,
   13.9188,       873,
   13.9491,       839,
   13.9795,       875,
   14.0098,       860,
   14.0401,       875,
   14.0705,       850,
   14.1008,       801,
   14.1311,       913,
   14.1614,       828,
   14.1918,       854,
   14.2221,       835,
   14.2524,       827,
   14.2828,       888,
   14.3131,       803,
   14.3434,       833,
   14.3737,       836,
   14.4041,       842,
   14.4344,       811,
   14.4647,       838,
   14.4951,       794,
   14.5254,       842,
   14.5557,       832,
    14.586,       828,
   14.6164,       855,
   14.6467,       860,
    14.677,       885,
   14.7073,       836,
   14.7377,       843,
    14.768,       835,
   14.7983,       810,
   14.8287,       827,
    14.859,       898,
   14.8893,       897,
   14.9196,       876,
     14.95,       825,
   14.9803,       788,
   15.0106,       792,
    15.041,       851,
   15.0713,       832,
   15.1016,       824,
   15.1319,       820,
   15.1623,       793,
   15.1926,       792,
   15.2229,       873,
   15.2533,       741,
   15.2836,       807,
   15.3139,       773,
   15.3442,       786,
   15.3746,       778,
   15.4049,       818,
   15.4352,       772,
   15.4656,       816,
   15.4959,       823,
   15.5262,       713,
   15.5565,       761,
   15.5869,       773,
   15.6172,       783,
   15.6475,       757,
   15.6778,       749,
   15.7082,       725,
   15.7385,       733,
   15.7688,       748,
   15.7992,       743,
   15.8295,       781,
   15.8598,       778,
   15.8901,       748,
   15.9205,       794,
   15.9508,       710,
   15.9811,       741,
   16.0115,       701,
   16.0418,       785,
   16.0721,       771,
   16.1024,       773,
   16.1328,       703,
   16.1631,       726,
   16.1934,       735,
   16.2238,       801,
   16.2541,       761,
   16.2844,       731,
   16.3147,       640,
   16.3451,       720,
   16.3754,       717,
   16.4057,       658,
   16.4361,       670,
   16.4664,       714,
   16.4967,       655,
    16.527,       697,
   16.5574,       757,
   16.5877,       719,
    16.618,       655,
   16.6483,       708,
   16.6787,       728,
    16.709,       718,
   16.7393,       715,
   16.7697,       739,
      16.8,       706,
   16.8303,       646,
   16.8606,       717,
    16.891,       654,
   16.9213,       675,
   16.9516,       710,
    16.982,       679,
   17.0123,       717,
   17.0426,       790,
   17.0729,       735,
   17.1033,       716,
   17.1336,       740,
   17.1639,       693,
   17.1943,       696,
   17.2246,       719,
   17.2549,       656,
   17.2852,       658,
   17.3156,       674,
   17.3459,       690,
   17.3762,       666,
   17.4066,       659,
   17.4369,       708,
   17.4672,       669,
   17.4975,       715,
   17.5279,       676,
   17.5582,       702,
   17.5885,       693,
   17.6188,       635,
   17.6492,       676,
   17.6795,       724,
   17.7098,       681,
   17.7402,       687,
   17.7705,       695,
   17.8008,       681,
   17.8311,       680,
   17.8615,       642,
   17.8918,       687,
   17.9221,       669,
   17.9525,       670,
   17.9828,       652,
   18.0131,       671,
   18.0434,       638,
   18.0738,       650,
   18.1041,       723,
   18.1344,       657,
   18.1648,       626,
   18.1951,       638,
   18.2254,       681,
   18.2557,       625,
   18.2861,       651,
   18.3164,       688,
   18.3467,       668,
   18.3771,       658,
   18.4074,       638,
   18.4377,       596,
    18.468,       629,
   18.4984,       674,
   18.5287,       716,
    18.559,       655,
   18.5893,       652,
   18.6197,       615,
     18.65,       637,
   18.6803,       636,
   18.7107,       662,
    18.741,       647,
   18.7713,       614,
   18.8016,       627,
    18.832,       600,
   18.8623,       602,
   18.8926,       650,
    18.923,       645,
   18.9533,       644,
   18.9836,       584,
   19.0139,       622,
   19.0443,       588,
   19.0746,       601,
   19.1049,       594,
   19.1353,       624,
   19.1656,       633,
   19.1959,       647,
   19.2262,       655,
   19.2566,       652,
   19.2869,       642,
   19.3172,       628,
   19.3476,       613,
   19.3779,       632,
   19.4082,       609,
   19.4385,       667,
   19.4689,       645,
   19.4992,       635,
   19.5295,       668,
   19.5599,       595,
   19.5902,       634,
   19.6205,       608,
   19.6508,       630,
   19.6812,       605,
   19.7115,       601,
   19.7418,       604,
   19.7721,       617,
   19.8025,       602,
   19.8328,       606,
   19.8631,       632,
   19.8935,       630,
   19.9238,       638,
   19.9541,       601,
   19.9844,       555,
   20.0148,       569,
   20.0451,       629,
   20.0754,       561,
   20.1058,       602,
   20.1361,       582,
   20.1664,       617,
   20.1967,       612,
   20.2271,       608,
   20.2574,       566,
   20.2877,       595,
   20.3181,       538,
   20.3484,       563,
   20.3787,       562,
    20.409,       596,
   20.4394,       611,
   20.4697,       580,
      20.5,       574,
   20.5304,       571,
   20.5607,       576,
    20.591,       554,
   20.6213,       571,
   20.6517,       582,
    20.682,       602,
   20.7123,       555,
   20.7426,       597,
    20.773,       547,
   20.8033,       592,
   20.8336,       553,
    20.864,       610,
   20.8943,       600,
   20.9246,       589,
   20.9549,       588,
   20.9853,       524,
   21.0156,       552,
   21.0459,       594,
   21.0763,       557,
   21.1066,       578,
   21.1369,       580,
   21.1672,       533,
   21.1976,       586,
   21.2279,       598,
   21.2582,       595,
   21.2886,       567,
   21.3189,       528,
   21.3492,       532,
   21.3795,       565,
   21.4099,       590,
   21.4402,       584,
   21.4705,       590,
   21.5009,       555,
   21.5312,       608,
   21.5615,       569,
   21.5918,       533,
   21.6222,       572,
   21.6525,       543,
   21.6828,       528,
   21.7131,       605,
   21.7435,       531,
   21.7738,       543,
   21.8041,       568,
   21.8345,       561,
   21.8648,       515,
   21.8951,       525,
   21.9254,       516,
   21.9558,       522,
   21.9861,       571,
   22.0164,       545,
   22.0468,       540,
   22.0771,       560,
   22.1074,       518,
   22.1377,       544,
   22.1681,       583,
   22.1984,       548,
   22.2287,       570,
   22.2591,       543,
   22.2894,       544,
   22.3197,       524,
     22.35,       524,
   22.3804,       572,
   22.4107,       530,
    22.441,       535,
   22.4714,       541,
   22.5017,       548,
    22.532,       532,
   22.5623,       568,
   22.5927,       552,
    22.623,       565,
   22.6533,       542,
   22.6836,       506,
    22.714,       545,
   22.7443,       573,
   22.7746,       591,
    22.805,       556,
   22.8353,       566,
   22.8656,       564,
   22.8959,       560,
   22.9263,       565,
   22.9566,       588,
   22.9869,       584,
   23.0173,       519,
   23.0476,       556,
   23.0779,       583,
   23.1082,       569,
   23.1386,       531,
   23.1689,       565,
   23.1992,       569,
   23.2296,       627,
   23.2599,       562,
   23.2902,       536,
   23.3205,       562,
   23.3509,       571,
   23.3812,       573,
   23.4115,       579,
   23.4419,       525,
   23.4722,       543,
   23.5025,       541,
   23.5328,       540,
   23.5632,       514,
   23.5935,       578,
   23.6238,       536,
   23.6541,       510,
   23.6845,       556,
   23.7148,       490,
   23.7451,       518,
   23.7755,       472,
   23.8058,       487,
   23.8361,       511,
   23.8664,       496,
   23.8968,       595,
   23.9271,       515,
   23.9574,       516,
   23.9878,       541,
   24.0181,       547,
   24.0484,       492,
   24.0787,       507,
   24.1091,       487,
   24.1394,       458,
   24.1697,       522,
   24.2001,       483,
   24.2304,       541,
   24.2607,       550,
    24.291,       556,
   24.3214,       523,
   24.3517,       514,
    24.382,       461,
   24.4124,       550,
   24.4427,       503,
    24.473,       503,
   24.5033,       528,
   24.5337,       521,
    24.564,       552,
   24.5943,       510,
   24.6246,       514,
    24.655,       562,
   24.6853,       508,
   24.7156,       507,
    24.746,       545,
   24.7763,       455,
   24.8066,       471,
   24.8369,       474,
   24.8673,       480,
   24.8976,       465,
   24.9279,       478,
   24.9583,       469,
   24.9886,       496,
   25.0189,       515,
   25.0492,       451,
   25.0796,       445,
   25.1099,       466,
   25.1402,       417,
   25.1706,       527,
   25.2009,       486,
   25.2312,       473,
   25.2615,       481,
   25.2919,       475,
   25.3222,       508,
   25.3525,       473,
   25.3829,       489,
   25.4132,       469,
   25.4435,       490,
   25.4738,       472,
   25.5042,       482,
   25.5345,       462,
   25.5648,       499,
   25.5952,       447,
   25.6255,       475,
   25.6558,       455,
   25.6861,       438,
   25.7165,       469,
   25.7468,       452,
   25.7771,       482,
   25.8074,       472,
   25.8378,       442,
   25.8681,       444,
   25.8984,       491,
   25.9288,       470,
   25.9591,       440,
   25.9894,       476,
   26.0197,       434,
   26.0501,       460,
   26.0804,       523,
   26.1107,       468,
   26.1411,       461,
   26.1714,       474,
   26.2017,       456,
    26.232,       460,
   26.2624,       498,
   26.2927,       466,
    26.323,       441,
   26.3534,       458,
   26.3837,       457,
    26.414,       490,
   26.4443,       430,
   26.4747,       453,
    26.505,       477,
   26.5353,       426,
   26.5657,       424,
    26.596,       450,
   26.6263,       522,
   26.6566,       454,
    26.687,       490,
   26.7173,       481,
   26.7476,       485,
   26.7779,       443,
   26.8083,       407,
   26.8386,       488,
   26.8689,       509,
   26.8993,       496,
   26.9296,       529,
   26.9599,       493,
   26.9902,       465,
   27.0206,       522,
   27.0509,       574,
   27.0812,       599,
   27.1116,       629,
   27.1419,       674,
   27.1722,       767,
   27.2025,       740,
   27.2329,       665,
   27.2632,       664,
   27.2935,       636,
   27.3239,       665,
   27.3542,       612,
   27.3845,       611,
   27.4148,       561,
   27.4452,       541,
   27.4755,       505,
   27.5058,       446,
   27.5362,       499,
   27.5665,       509,
   27.5968,       478,
   27.6271,       464,
   27.6575,       455,
   27.6878,       448,
   27.7181,       473,
   27.7484,       400,
   27.7788,       421,
   27.8091,       447,
   27.8394,       424,
   27.8698,       435,
   27.9001,       444,
   27.9304,       412,
   27.9607,       488,
   27.9911,       406,
   28.0214,       469,
   28.0517,       429,
   28.0821,       443,
   28.1124,       437,
   28.1427,       422,
    28.173,       420,
   28.2034,       475,
   28.2337,       466,
    28.264,       427,
   28.2944,       383,
   28.3247,       436,
    28.355,       415,
   28.3853,       408,
   28.4157,       422,
    28.446,       420,
   28.4763,       419,
   28.5067,       398,
    28.537,       427,
   28.5673,       409,
   28.5976,       415,
    28.628,       424,
   28.6583,       419,
   28.6886,       411,
   28.7189,       420,
   28.7493,       395,
   28.7796,       423,
   28.8099,       389,
   28.8403,       407,
   28.8706,       414,
   28.9009,       396,
   28.9312,       414,
   28.9616,       420,
   28.9919,       413,
   29.0222,       430,
   29.0526,       445,
   29.0829,       410,
   29.1132,       425,
   29.1435,       411,
   29.1739,       416,
   29.2042,       391,
   29.2345,       430,
   29.2649,       357,
   29.2952,       411,
   29.3255,       434,
   29.3558,       379,
   29.3862,       415,
   29.4165,       429,
   29.4468,       427,
   29.4772,       402,
   29.5075,       410,
   29.5378,       426,
   29.5681,       423,
   29.5985,       401,
   29.6288,       443,
   29.6591,       446,
   29.6894,       433,
   29.7198,       435,
   29.7501,       417,
   29.7804,       461,
   29.8108,       431,
   29.8411,       448,
   29.8714,       433,
   29.9017,       434,
   29.9321,       433,
   29.9624,       436,
   29.9927,       482,
   30.0231,       430,
   30.0534,       470,
   30.0837,       480,
    30.114,       461,
   30.1444,       471,
   30.1747,       469,
    30.205,       492,
   30.2354,       523,
   30.2657,       530,
    30.296,       582,
   30.3263,       644,
   30.3567,       698,
    30.387,       794,
   30.4173,       950,
   30.4477,      1289,
    30.478,      1914,
   30.5083,      2299,
   30.5386,      2269,
    30.569,      1979,
   30.5993,      1575,
   30.6296,      1132,
     30.66,       860,
   30.6903,       709,
   30.7206,       676,
   30.7509,       620,
   30.7813,       585,
   30.8116,       543,
   30.8419,       546,
   30.8722,       512,
   30.9026,       518,
   30.9329,       506,
   30.9632,       494,
   30.9936,       496,
   31.0239,       481,
   31.0542,       539,
   31.0845,       518,
   31.1149,       549,
   31.1452,       493,
   31.1755,       472,
   31.2059,       501,
   31.2362,       504,
   31.2665,       478,
   31.2968,       507,
   31.3272,       512,
   31.3575,       558,
   31.3878,       530,
   31.4182,       589,
   31.4485,       556,
   31.4788,       590,
   31.5091,       602,
   31.5395,       650,
   31.5698,       738,
   31.6001,       821,
   31.6305,       995,
   31.6608,      1267,
   31.6911,      1275,
   31.7214,      1241,
   31.7518,      1075,
   31.7821,       934,
   31.8124,       768,
   31.8427,       631,
   31.8731,       555,
   31.9034,       492,
   31.9337,       499,
   31.9641,       522,
   31.9944,       476,
   32.0247,       475,
    32.055,       444,
   32.0854,       435,
   32.1157,       445,
    32.146,       415,
   32.1764,       405,
   32.2067,       395,
    32.237,       435,
   32.2673,       413,
   32.2977,       401,
    32.328,       419,
   32.3583,       423,
   32.3887,       386,
    32.419,       420,
   32.4493,       389,
   32.4796,       402,
     32.51,       383,
   32.5403,       407,
   32.5706,       368,
    32.601,       369,
   32.6313,       371,
   32.6616,       399,
   32.6919,       401,
   32.7223,       348,
   32.7526,       348,
   32.7829,       380,
   32.8132,       384,
   32.8436,       369,
   32.8739,       336,
   32.9042,       355,
   32.9346,       391,
   32.9649,       413,
   32.9952,       366,
   33.0255,       395,
   33.0559,       395,
   33.0862,       356,
   33.1165,       373,
   33.1469,       342,
   33.1772,       338,
   33.2075,       364,
   33.2378,       382,
   33.2682,       339,
   33.2985,       365,
   33.3288,       360,
   33.3592,       387,
   33.3895,       403,
   33.4198,       369,
   33.4501,       368,
   33.4805,       357,
   33.5108,       378,
   33.5411,       365,
   33.5715,       356,
   33.6018,       383,
   33.6321,       382,
   33.6624,       347,
   33.6928,       390,
   33.7231,       381,
   33.7534,       403,
   33.7837,       389,
   33.8141,       393,
   33.8444,       384,
   33.8747,       367,
   33.9051,       379,
   33.9354,       394,
   33.9657,       377,
    33.996,       412,
   34.0264,       426,
   34.0567,       410,
    34.087,       470,
   34.1174,       487,
   34.1477,       457,
    34.178,       514,
   34.2083,       492,
   34.2387,       537,
    34.269,       574,
   34.2993,       673,
   34.3297,       643,
     34.36,       658,
   34.3903,       779,
   34.4206,       798,
    34.451,       847,
   34.4813,      1017,
   34.5116,      1102,
    34.542,      1334,
   34.5723,      1568,
   34.6026,      1835,
   34.6329,      2080,
   34.6633,      2322,
   34.6936,      2467,
   34.7239,      2685,
   34.7542,      2738,
   34.7846,      2833,
   34.8149,      2710,
   34.8452,      2581,
   34.8756,      2410,
   34.9059,      2171,
   34.9362,      1980,
   34.9665,      1763,
   34.9969,      1532,
   35.0272,      1422,
   35.0575,      1194,
   35.0879,      1017,
   35.1182,      1017,
   35.1485,       910,
   35.1788,       815,
   35.2092,       818,
   35.2395,       708,
   35.2698,       697,
   35.3002,       658,
   35.3305,       596,
   35.3608,       573,
   35.3911,       585,
   35.4215,       576,
   35.4518,       531,
   35.4821,       525,
   35.5125,       516,
   35.5428,       497,
   35.5731,       461,
   35.6034,       511,
   35.6338,       449,
   35.6641,       504,
   35.6944,       461,
   35.7248,       465,
   35.7551,       448,
   35.7854,       495,
   35.8157,       453,
   35.8461,       545,
   35.8764,       532,
   35.9067,       503,
    35.937,       524,
   35.9674,       530,
   35.9977,       487,
    36.028,       416,
   36.0584,       456,
   36.0887,       465,
    36.119,       404,
   36.1493,       421,
   36.1797,       432,
     36.21,       438,
   36.2403,       458,
   36.2707,       494,
    36.301,       419,
   36.3313,       385,
   36.3616,       365,
    36.392,       355,
   36.4223,       397,
   36.4526,       342,
    36.483,       346,
   36.5133,       367,
   36.5436,       349,
   36.5739,       282,
   36.6043,       341,
   36.6346,       338,
   36.6649,       338,
   36.6953,       344,
   36.7256,       356,
   36.7559,       383,
   36.7862,       381,
   36.8166,       407,
   36.8469,       370,
   36.8772,       363,
   36.9075,       369,
   36.9379,       382,
   36.9682,       378,
   36.9985,       381,
   37.0289,       398,
   37.0592,       383,
   37.0895,       410,
   37.1198,       389,
   37.1502,       376,
   37.1805,       365,
   37.2108,       396,
   37.2412,       384,
   37.2715,       380,
   37.3018,       393,
   37.3321,       382,
   37.3625,       354,
   37.3928,       394,
   37.4231,       366,
   37.4535,       343,
   37.4838,       380,
   37.5141,       367,
   37.5444,       380,
   37.5748,       377,
   37.6051,       372,
   37.6354,       327,
   37.6658,       341,
   37.6961,       355,
   37.7264,       362,
   37.7567,       362,
   37.7871,       347,
   37.8174,       375,
   37.8477,       351,
    37.878,       341,
   37.9084,       341,
   37.9387,       367,
    37.969,       359,
   37.9994,       361,
   38.0297,       371,
     38.06,       380,
   38.0903,       390,
   38.1207,       418,
    38.151,       439,
   38.1813,       471,
   38.2117,       454,
    38.242,       431,
   38.2723,       410,
   38.3026,       429,
    38.333,       447,
   38.3633,       415,
   38.3936,       430,
    38.424,       431,
   38.4543,       498,
   38.4846,       466,
   38.5149,       629,
   38.5453,       722,
   38.5756,       911,
   38.6059,      1095,
   38.6363,      1036,
   38.6666,       912,
   38.6969,       858,
   38.7272,       702,
   38.7576,       541,
   38.7879,       480,
   38.8182,       439,
   38.8485,       425,
   38.8789,       407,
   38.9092,       366,
   38.9395,       356,
   38.9699,       396,
   39.0002,       354,
   39.0305,       375,
   39.0608,       333,
   39.0912,       316,
   39.1215,       375,
   39.1518,       316,
   39.1822,       344,
   39.2125,       319,
   39.2428,       310,
   39.2731,       327,
   39.3035,       334,
   39.3338,       322,
   39.3641,       338,
   39.3945,       338,
   39.4248,       327,
   39.4551,       320,
   39.4854,       299,
   39.5158,       288,
   39.5461,       322,
   39.5764,       324,
   39.6068,       286,
   39.6371,       305,
   39.6674,       314,
   39.6977,       324,
   39.7281,       327,
   39.7584,       291,
   39.7887,       330,
    39.819,       305,
   39.8494,       336,
   39.8797,       339,
     39.91,       324,
   39.9404,       331,
   39.9707,       304,
    40.001,       298,
   40.0313,       354,
   40.0617,       305,
    40.092,       320,
   40.1223,       326,
   40.1527,       316,
    40.183,       319,
   40.2133,       298,
   40.2436,       303,
    40.274,       331,
   40.3043,       338,
   40.3346,       307,
    40.365,       313,
   40.3953,       318,
   40.4256,       358,
   40.4559,       317,
   40.4863,       310,
   40.5166,       305,
   40.5469,       288,
   40.5773,       316,
   40.6076,       319,
   40.6379,       304,
   40.6682,       324,
   40.6986,       314,
   40.7289,       332,
   40.7592,       344,
   40.7895,       294,
   40.8199,       348,
   40.8502,       336,
   40.8805,       307,
   40.9109,       331,
   40.9412,       292,
   40.9715,       292,
   41.0018,       298,
   41.0322,       299,
   41.0625,       318,
   41.0928,       324,
   41.1232,       331,
   41.1535,       299,
   41.1838,       305,
   41.2141,       291,
   41.2445,       329,
   41.2748,       335,
   41.3051,       295,
   41.3355,       291,
   41.3658,       309,
   41.3961,       315,
   41.4264,       326,
   41.4568,       346,
   41.4871,       312,
   41.5174,       296,
   41.5478,       327,
   41.5781,       311,
   41.6084,       324,
   41.6387,       317,
   41.6691,       300,
   41.6994,       325,
   41.7297,       317,
   41.7601,       325,
   41.7904,       321,
   41.8207,       356,
    41.851,       371,
   41.8814,       366,
   41.9117,       350,
    41.942,       388,
   41.9723,       380,
   42.0027,       438,
    42.033,       456,
   42.0633,       557,
   42.0937,       610,
    42.124,       741,
   42.1543,       680,
   42.1846,       718,
    42.215,       741,
   42.2453,       718,
   42.2756,       657,
    42.306,       563,
   42.3363,       570,
   42.3666,       528,
   42.3969,       503,
   42.4273,       541,
   42.4576,       509,
   42.4879,       576,
   42.5183,       521,
   42.5486,       551,
   42.5789,       574,
   42.6092,       588,
   42.6396,       583,
   42.6699,       582,
   42.7002,       521,
   42.7306,       513,
   42.7609,       462,
   42.7912,       441,
   42.8215,       434,
   42.8519,       448,
   42.8822,       422,
   42.9125,       379,
   42.9428,       371,
   42.9732,       359,
   43.0035,       316,
   43.0338,       376,
   43.0642,       327,
   43.0945,       333,
   43.1248,       348,
   43.1551,       316,
   43.1855,       323,
   43.2158,       362,
   43.2461,       375,
   43.2765,       376,
   43.3068,       342,
   43.3371,       323,
   43.3674,       358,
   43.3978,       355,
   43.4281,       391,
   43.4584,       397,
   43.4888,       450,
   43.5191,       472,
   43.5494,       450,
   43.5797,       409,
   43.6101,       433,
   43.6404,       418,
   43.6707,       411,
   43.7011,       378,
   43.7314,       335,
   43.7617,       337,
    43.792,       324,
   43.8224,       345,
   43.8527,       361,
    43.883,       320,
   43.9133,       344,
   43.9437,       349,
    43.974,       346,
   44.0043,       365,
   44.0347,       393,
    44.065,       386,
   44.0953,       392,
   44.1256,       410,
    44.156,       512,
   44.1863,       618,
   44.2166,       721,
    44.247,       770,
   44.2773,       709,
   44.3076,       704,
   44.3379,       657,
   44.3683,       560,
   44.3986,       452,
   44.4289,       401,
   44.4593,       391,
   44.4896,       336,
   44.5199,       370,
   44.5502,       339,
   44.5806,       335,
   44.6109,       328,
   44.6412,       364,
   44.6716,       342,
   44.7019,       383,
   44.7322,       369,
   44.7625,       406,
   44.7929,       406,
   44.8232,       483,
   44.8535,       542,
   44.8838,       602,
   44.9142,       525,
   44.9445,       521,
   44.9748,       531,
   45.0052,       530,
   45.0355,       506,
   45.0658,       518,
   45.0961,       515,
   45.1265,       510,
   45.1568,       516,
   45.1871,       498,
   45.2175,       412,
   45.2478,       363,
   45.2781,       354,
   45.3084,       356,
   45.3388,       329,
   45.3691,       293,
   45.3994,       288,
   45.4298,       312,
   45.4601,       296,
   45.4904,       298,
   45.5207,       300,
   45.5511,       297,
   45.5814,       288,
   45.6117,       297,
   45.6421,       303,
   45.6724,       294,
   45.7027,       278,
    45.733,       307,
   45.7634,       311,
   45.7937,       304,
    45.824,       324,
   45.8543,       286,
   45.8847,       299,
    45.915,       269,
   45.9453,       290,
   45.9757,       292,
    46.006,       283,
   46.0363,       300,
   46.0666,       298,
    46.097,       307,
   46.1273,       325,
   46.1576,       305,
    46.188,       342,
   46.2183,       319,
   46.2486,       296,
   46.2789,       331,
   46.3093,       288,
   46.3396,       314,
   46.3699,       358,
   46.4003,       363,
   46.4306,       375,
   46.4609,       395,
   46.4912,       373,
   46.5216,       466,
   46.5519,       422,
   46.5822,       459,
   46.6126,       535,
   46.6429,       559,
   46.6732,       557,
   46.7035,       585,
   46.7339,       575,
   46.7642,       580,
   46.7945,       585,
   46.8249,       572,
   46.8552,       564,
   46.8855,       536,
   46.9158,       500,
   46.9462,       496,
   46.9765,       474,
   47.0068,       368,
   47.0371,       435,
   47.0675,       415,
   47.0978,       341,
   47.1281,       388,
   47.1585,       356,
   47.1888,       440,
   47.2191,       339,
   47.2494,       332,
   47.2798,       357,
   47.3101,       323,
   47.3404,       296,
   47.3708,       301,
   47.4011,       284,
   47.4314,       279,
   47.4617,       277,
   47.4921,       292,
   47.5224,       297,
   47.5527,       301,
   47.5831,       292,
   47.6134,       291,
   47.6437,       311,
    47.674,       297,
   47.7044,       250,
   47.7347,       309,
    47.765,       259,
   47.7954,       283,
   47.8257,       278,
    47.856,       276,
   47.8863,       314,
   47.9167,       312,
    47.947,       302,
   47.9773,       325,
   48.0076,       342,
    48.038,       303,
   48.0683,       323,
   48.0986,       349,
    48.129,       369,
   48.1593,       398,
   48.1896,       413,
   48.2199,       410,
   48.2503,       418,
   48.2806,       322,
   48.3109,       343,
   48.3413,       324,
   48.3716,       308,
   48.4019,       294,
   48.4322,       290,
   48.4626,       307,
   48.4929,       312,
   48.5232,       281,
   48.5536,       256,
   48.5839,       274,
   48.6142,       276,
   48.6445,       272,
   48.6749,       267,
   48.7052,       268,
   48.7355,       269,
   48.7659,       283,
   48.7962,       278,
   48.8265,       237,
   48.8568,       280,
   48.8872,       247,
   48.9175,       249,
   48.9478,       270,
   48.9781,       279,
   49.0085,       240,
   49.0388,       260,
   49.0691,       251,
   49.0995,       278,
   49.1298,       278,
   49.1601,       245,
   49.1904,       252,
   49.2208,       226,
   49.2511,       271,
   49.2814,       260,
   49.3118,       269,
   49.3421,       237,
   49.3724,       251,
   49.4027,       226,
   49.4331,       270,
   49.4634,       258,
   49.4937,       266,
   49.5241,       244,
   49.5544,       250,
   49.5847,       283,
    49.615,       220,
   49.6454,       230,
   49.6757,       257,
    49.706,       258,
   49.7364,       274,
   49.7667,       259,
    49.797,       286,
   49.8273,       258,
   49.8577,       268,
    49.888,       260,
   49.9183,       288,
   49.9486,       257,
    49.979,       275,
   50.0093,       275,
   50.0396,       263,
     50.07,       315,
   50.1003,       314,
   50.1306,       305,
   50.1609,       403,
   50.1913,       412,
   50.2216,       458,
   50.2519,       489,
   50.2823,       396,
   50.3126,       430,
   50.3429,       444,
   50.3732,       386,
   50.4036,       377,
   50.4339,       346,
   50.4642,       324,
   50.4946,       263,
   50.5249,       301,
   50.5552,       297,
   50.5855,       317,
   50.6159,       320,
   50.6462,       282,
   50.6765,       266,
   50.7069,       316,
   50.7372,       288,
   50.7675,       268,
   50.7978,       286,
   50.8282,       313,
   50.8585,       327,
   50.8888,       296,
   50.9191,       341,
   50.9495,       332,
   50.9798,       342,
   51.0101,       397,
   51.0405,       377,
   51.0708,       442,
   51.1011,       452,
   51.1314,       465,
   51.1618,       479,
   51.1921,       502,
   51.2224,       497,
   51.2528,       503,
   51.2831,       512,
   51.3134,       506,
   51.3437,       469,
   51.3741,       496,
   51.4044,       431,
   51.4347,       476,
   51.4651,       426,
   51.4954,       400,
   51.5257,       387,
    51.556,       402,
   51.5864,       381,
   51.6167,       383,
    51.647,       321,
   51.6774,       328,
   51.7077,       287,
    51.738,       336,
   51.7683,       300,
   51.7987,       297,
    51.829,       331,
   51.8593,       303,
   51.8897,       307,
     51.92,       286,
   51.9503,       323,
   51.9806,       315,
    52.011,       285,
   52.0413,       312,
   52.0716,       284,
   52.1019,       239,
   52.1323,       315,
   52.1626,       315,
   52.1929,       265,
   52.2233,       282,
   52.2536,       266,
   52.2839,       289,
   52.3142,       261,
   52.3446,       283,
   52.3749,       283,
   52.4052,       290,
   52.4356,       286,
   52.4659,       326,
   52.4962,       282,
   52.5265,       286,
   52.5569,       297,
   52.5872,       300,
   52.6175,       271,
   52.6479,       284,
   52.6782,       287,
   52.7085,       275,
   52.7388,       272,
   52.7692,       255,
   52.7995,       290,
   52.8298,       286,
   52.8602,       292,
   52.8905,       248,
   52.9208,       266,
   52.9511,       287,
   52.9815,       248,
   53.0118,       276,
   53.0421,       281,
   53.0724,       291,
   53.1028,       290,
   53.1331,       275,
   53.1634,       295,
   53.1938,       316,
   53.2241,       294,
   53.2544,       327,
   53.2847,       311,
   53.3151,       334,
   53.3454,       317,
   53.3757,       308,
   53.4061,       337,
   53.4364,       339,
   53.4667,       337,
    53.497,       342,
   53.5274,       364,
   53.5577,       389,
    53.588,       388,
   53.6184,       430,
   53.6487,       515,
    53.679,       595,
   53.7093,       826,
   53.7397,       914,
     53.77,       887,
   53.8003,       792,
   53.8307,       722,
    53.861,       677,
   53.8913,       665,
   53.9216,       528,
    53.952,       442,
   53.9823,       424,
   54.0126,       380,
   54.0429,       335,
   54.0733,       360,
   54.1036,       360,
   54.1339,       298,
   54.1643,       301,
   54.1946,       310,
   54.2249,       285,
   54.2552,       327,
   54.2856,       275,
   54.3159,       286,
   54.3462,       303,
   54.3766,       293,
   54.4069,       273,
   54.4372,       278,
   54.4675,       273,
   54.4979,       267,
   54.5282,       254,
   54.5585,       295,
   54.5889,       293,
   54.6192,       292,
   54.6495,       259,
   54.6798,       275,
   54.7102,       280,
   54.7405,       256,
   54.7708,       296,
   54.8012,       305,
   54.8315,       311,
   54.8618,       294,
   54.8921,       291,
   54.9225,       288,
   54.9528,       285,
   54.9831,       298,
   55.0134,       266,
   55.0438,       265,
   55.0741,       222,
   55.1044,       283,
   55.1348,       278,
   55.1651,       285,
   55.1954,       260,
   55.2257,       292,
   55.2561,       264,
   55.2864,       290,
   55.3167,       302,
   55.3471,       282,
   55.3774,       310,
   55.4077,       279,
    55.438,       271,
   55.4684,       276,
   55.4987,       292,
    55.529,       295,
   55.5594,       315,
   55.5897,       313,
     55.62,       308,
   55.6503,       289,
   55.6807,       279,
    55.711,       326,
   55.7413,       356,
   55.7717,       331,
    55.802,       344,
   55.8323,       327,
   55.8626,       339,
    55.893,       362,
   55.9233,       368,
   55.9536,       343,
   55.9839,       354,
   56.0143,       389,
   56.0446,       380,
   56.0749,       398,
   56.1053,       416,
   56.1356,       405,
   56.1659,       406,
   56.1962,       400,
   56.2266,       424,
   56.2569,       412,
   56.2872,       436,
   56.3176,       437,
   56.3479,       485,
   56.3782,       478,
   56.4085,       461,
   56.4389,       497,
   56.4692,       499,
   56.4995,       523,
   56.5299,       512,
   56.5602,       557,
   56.5905,       588,
   56.6208,       595,
   56.6512,       633,
   56.6815,       671,
   56.7118,       709,
   56.7422,       701,
   56.7725,       678,
   56.8028,       740,
   56.8331,       712,
   56.8635,       696,
   56.8938,       641,
   56.9241,       555,
   56.9544,       598,
   56.9848,       552,
   57.0151,       510,
   57.0454,       475,
   57.0758,       450,
   57.1061,       424,
   57.1364,       420,
   57.1667,       398,
   57.1971,       395,
   57.2274,       386,
   57.2577,       386,
   57.2881,       365,
   57.3184,       392,
   57.3487,       391,
    57.379,       403,
   57.4094,       412,
   57.4397,       414,
     57.47,       412,
   57.5004,       449,
   57.5307,       420,
    57.561,       445,
   57.5913,       429,
   57.6217,       435,
    57.652,       503,
   57.6823,       503,
   57.7127,       516,
    57.743,       476,
   57.7733,       482,
   57.8036,       518,
    57.834,       480,
   57.8643,       484,
   57.8946,       493,
    57.925,       494,
   57.9553,       447,
   57.9856,       437,
   58.0159,       474,
   58.0463,       462,
   58.0766,       462,
   58.1069,       430,
   58.1372,       406,
   58.1676,       412,
   58.1979,       381,
   58.2282,       405,
   58.2586,       370,
   58.2889,       341,
   58.3192,       378,
   58.3495,       392,
   58.3799,       379,
   58.4102,       359,
   58.4405,       343,
   58.4709,       357,
   58.5012,       313,
   58.5315,       340,
   58.5618,       351,
   58.5922,       354,
   58.6225,       319,
   58.6528,       330,
   58.6832,       343,
   58.7135,       355,
   58.7438,       311,
   58.7741,       340,
   58.8045,       325,
   58.8348,       396,
   58.8651,       358,
   58.8955,       438,
   58.9258,       427,
   58.9561,       452,
   58.9864,       493,
   59.0168,       473,
   59.0471,       516,
   59.0774,       445,
   59.1077,       428,
   59.1381,       394,
   59.1684,       414,
   59.1987,       341,
   59.2291,       344,
   59.2594,       296,
   59.2897,       320,
     59.32,       281,
   59.3504,       293,
   59.3807,       311,
    59.411,       289,
   59.4414,       266,
   59.4717,       252,
    59.502,       286,
   59.5323,       275,
   59.5627,       288,
    59.593,       261,
   59.6233,       252,
   59.6537,       272,
    59.684,       278,
   59.7143,       300,
   59.7446,       283,
    59.775,       283,
   59.8053,       286,
   59.8356,       265,
    59.866,       273,
   59.8963,       292,
   59.9266,       279,
   59.9569,       262,
   59.9873,       262,
   60.0176,       274,
   60.0479,       311,
   60.0782,       241,
   60.1086,       263,
   60.1389,       269,
   60.1692,       287,
   60.1996,       251,
   60.2299,       259,
   60.2602,       226,
   60.2905,       247,
   60.3209,       253,
   60.3512,       249,
   60.3815,       253,
   60.4119,       226,
   60.4422,       250,
   60.4725,       277,
   60.5028,       251,
   60.5332,       282,
   60.5635,       272,
   60.5938,       271,
   60.6242,       257,
   60.6545,       263,
   60.6848,       257,
   60.7151,       261,
   60.7455,       248,
   60.7758,       269,
   60.8061,       279,
   60.8365,       275,
   60.8668,       265,
   60.8971,       280,
   60.9274,       270,
   60.9578,       255,
   60.9881,       245,
   61.0184,       253,
   61.0487,       286,
   61.0791,       265,
   61.1094,       243,
   61.1397,       262,
   61.1701,       289,
   61.2004,       292,
   61.2307,       264,
    61.261,       299,
   61.2914,       270,
   61.3217,       273,
    61.352,       252,
   61.3824,       251,
   61.4127,       297,
    61.443,       287,
   61.4733,       302,
   61.5037,       286,
    61.534,       318,
   61.5643,       318,
   61.5947,       350,
    61.625,       421,
   61.6553,       466,
   61.6856,       443,
    61.716,       423,
   61.7463,       409,
   61.7766,       391,
    61.807,       408,
   61.8373,       354,
   61.8676,       346,
   61.8979,       328,
   61.9283,       293,
   61.9586,       292,
   61.9889,       250,
   62.0192,       282,
   62.0496,       304,
   62.0799,       286,
   62.1102,       294,
   62.1406,       306,
   62.1709,       298,
   62.2012,       320,
   62.2315,       332,
   62.2619,       323,
   62.2922,       347,
   62.3225,       336,
   62.3529,       363,
   62.3832,       357,
   62.4135,       341,
   62.4438,       344,
   62.4742,       313,
   62.5045,       323,
   62.5348,       283,
   62.5652,       278,
   62.5955,       247,
   62.6258,       258,
   62.6561,       238,
   62.6865,       257,
   62.7168,       259,
   62.7471,       247,
   62.7775,       259,
   62.8078,       220,
   62.8381,       218,
   62.8684,       248,
   62.8988,       212,
   62.9291,       233,
   62.9594,       221,
   62.9898,       210,
   63.0201,       225,
   63.0504,       234,
   63.0807,       207,
   63.1111,       233,
   63.1414,       235,
   63.1717,       202,
    63.202,       230,
   63.2324,       213,
   63.2627,       219,
    63.293,       242,
   63.3234,       248,
   63.3537,       238,
    63.384,       227,
   63.4143,       234,
   63.4447,       230,
    63.475,       261,
   63.5053,       234,
   63.5357,       254,
    63.566,       248,
   63.5963,       234,
   63.6266,       251,
    63.657,       207,
   63.6873,       224,
   63.7176,       217,
    63.748,       221,
   63.7783,       224,
   63.8086,       202,
   63.8389,       214,
   63.8693,       208,
   63.8996,       236,
   63.9299,       228,
   63.9603,       219,
   63.9906,       244,
   64.0209,       245,
   64.0512,       228,
   64.0816,       238,
   64.1119,       229,
   64.1422,       224,
   64.1725,       210,
   64.2029,       225,
   64.2332,       220,
   64.2635,       220,
   64.2939,       216,
   64.3242,       209,
   64.3545,       215,
   64.3848,       207,
   64.4152,       211,
   64.4455,       224,
   64.4758,       223,
   64.5062,       226,
   64.5365,       226,
   64.5668,       232,
   64.5971,       213,
   64.6275,       211,
   64.6578,       197,
   64.6881,       201,
   64.7185,       199,
   64.7488,       226,
   64.7791,       201,
   64.8094,       199,
   64.8398,       217,
   64.8701,       216,
   64.9004,       190,
   64.9308,       209,
   64.9611,       203,
   64.9914,       186,
   65.0217,       208,
   65.0521,       207,
   65.0824,       205,
   65.1127,       207,
    65.143,       215,
   65.1734,       231,
   65.2037,       214,
    65.234,       226,
   65.2644,       207,
   65.2947,       201,
    65.325,       214,
   65.3553,       209,
   65.3857,       211,
    65.416,       216,
   65.4463,       200,
   65.4767,       213,
    65.507,       199,
   65.5373,       208,
   65.5676,       207,
    65.598,       207,
   65.6283,       247,
   65.6586,       213,
    65.689,       211,
   65.7193,       197,
   65.7496,       187,
   65.7799,       222,
   65.8103,       181,
   65.8406,       182,
   65.8709,       182,
   65.9013,       207,
   65.9316,       193,
   65.9619,       211,
   65.9922,       214,
   66.0226,       174,
   66.0529,       205,
   66.0832,       231,
   66.1135,       189,
   66.1439,       251,
   66.1742,       231,
   66.2045,       230,
   66.2349,       194,
   66.2652,       215,
   66.2955,       211,
   66.3258,       195,
   66.3562,       224,
   66.3865,       230,
   66.4168,       207,
   66.4472,       201,
   66.4775,       195,
   66.5078,       175,
   66.5381,       201,
   66.5685,       220,
   66.5988,       180,
   66.6291,       185,
   66.6595,       197,
   66.6898,       226,
   66.7201,       193,
   66.7504,       174,
   66.7808,       191,
   66.8111,       197,
   66.8414,       178,
   66.8718,       209,
   66.9021,       203,
   66.9324,       192,
   66.9627,       197,
   66.9931,       212,
   67.0234,       224,
   67.0537,       214,
    67.084,       195,
   67.1144,       215,
   67.1447,       211,
    67.175,       227,
   67.2054,       210,
   67.2357,       212,
    67.266,       223,
   67.2963,       223,
   67.3267,       214,
    67.357,       235,
   67.3873,       193,
   67.4177,       185,
    67.448,       189,
   67.4783,       220,
   67.5086,       219,
    67.539,       218,
   67.5693,       215,
   67.5996,       219,
     67.63,       204,
   67.6603,       244,
   67.6906,       208,
   67.7209,       239,
   67.7513,       225,
   67.7816,       208,
   67.8119,       240,
   67.8423,       242,
   67.8726,       231,
   67.9029,       215,
   67.9332,       216,
   67.9636,       219,
   67.9939,       237,
   68.0242,       215,
   68.0546,       218,
   68.0849,       185,
   68.1152,       203,
   68.1455,       225,
   68.1759,       219,
   68.2062,       214,
   68.2365,       226,
   68.2668,       215,
   68.2972,       212,
   68.3275,       228,
   68.3578,       208,
   68.3882,       224,
   68.4185,       224,
   68.4488,       231,
   68.4791,       239,
   68.5095,       218,
   68.5398,       257,
   68.5701,       263,
   68.6005,       256,
   68.6308,       269,
   68.6611,       295,
   68.6914,       254,
   68.7218,       258,
   68.7521,       262,
   68.7824,       246,
   68.8128,       263,
   68.8431,       247,
   68.8734,       268,
   68.9037,       254,
   68.9341,       243,
   68.9644,       257,
   68.9947,       263,
   69.0251,       251,
   69.0554,       236,
   69.0857,       202,
    69.116,       217,
   69.1464,       251,
   69.1767,       235,
    69.207,       220,
   69.2373,       226,
   69.2677,       218,
    69.298,       225,
   69.3283,       222,
   69.3587,       228,
    69.389,       202,
   69.4193,       220,
   69.4496,       216,
     69.48,       200,
   69.5103,       179,
   69.5406,       182,
    69.571,       208,
   69.6013,       182,
   69.6316,       217,
   69.6619,       187,
   69.6923,       216,
   69.7226,       203,
   69.7529,       176,
   69.7833,       193,
   69.8136,       212,
   69.8439,       190,
   69.8742,       184,
   69.9046,       232,
   69.9349,       229,
   69.9652,       211,
   69.9956,       239,
