;RAW4.00
[RawHeader]
Date=04/22/2019
EstimatedTotalTime=2312.83
FurtherDQLReading=0
HardwareIndicator=65519
MeasuredTotalTime=2312.83
MeasurementFlag=1
NumberOfMeasuredRanges=1
NumberOfRanges=1
Time=17:44:49

[VarInfo]
Type=USER
Flags=0
Value=Bruker Service

[VarInfo]
Type=SAMPLEID
Flags=0
Value=Commander Sample ID

[VarInfo]
Type=COMMENT
Flags=0
Value=

[VarInfo]
Type=UTF
Flags=0
Value=

[VarInfo]
Type=CREATOR
Flags=0
Value=BrmlToV4Converter

[VarInfo]
Type=CREATOR_VERSION
Flags=0
Value=7.3.0.0

[HardwareConfiguration]
AbsorptionFactor=9999
ActivateAbsorber=0
Alpha1=1.78897
Alpha2=1.79285
AlphaAverage=1.79026
AlphaRatio=0.5
Analyzer=0
Anode=Co
AntiScatteringSlit=9999
BeamOpticsFlags=0
Beta=1.62079
BetaRelativeIntensity=0
DeactivateAbsorber=0
DetectorSlit=9999
DivergenceSlit=1
GoniometerControl=0
GoniometerDiameter=282
GoniometerModel=256
GoniometerStage=7
Monochromator=0
NearSampleSlit=9999
PrimarySollerSlit=9999
SampleChanger=0
SecondSollerSlit=9999
SynchronousAxis=0
ThinFilmAttachment=9999
WaveUnit=A

[RangeHeader]
ActuallyUsedLambda=1.79026
AdditionalDetectorMask=257
DataRecordLength=4
DelayTime=0
DisplayPlaneNumber=0
EstimatedScanTime=2313
ExtraParametersMask=0
GeneratorCurrent=10
GeneratorVoltage=30
Increment=0.0303281
Increment3=0
NumberOfCompletedData=2144
NumberOfCounts=1
NumberOfDetectors=0
NumberOfDrives=2
NumberOfEncoderDrives=0
NumberOfMeasuredData=2144
NumberOfVaryingParameters=0
RangeStartTime=0
RotationSpeed=1
ScanMode=1
ScanType=Locked Coupled
SimulatedMeasConditions=0
SlitChangerIn=0
SmootingWidth=0
Start=5.00234
Steps=2144
SynchronousRotation=0
Time=165

[VarInfo]
Type=PSD_DISCRIM
Flags=0
Value=0.11;0.25

[PSD]
ActualTwoTheta=9999
FirstUsedChannel=0
FixedPSD=0
PSDOpening=5.00414
PSDType=5

[Drive]
DriveFlags=1
DriveName=2Theta
DriveNumber=2
DriveOffset=0
OffsetIndex=0
OscillationAmplitude=0
OscillationSpeed=0
StartPosition=5.00234

[Drive]
DriveFlags=1
DriveName=Theta
DriveNumber=1
DriveOffset=0
OffsetIndex=0
OscillationAmplitude=0
OscillationSpeed=0
StartPosition=2.50117

[Data]
     Angle,       PSD,
   5.00234,      8988,
   5.03267,      9037,
     5.063,      8964,
   5.09333,      8741,
   5.12365,      8720,
   5.15398,      8508,
   5.18431,      8618,
   5.21464,      8053,
   5.24497,      8056,
   5.27529,      7783,
   5.30562,      7746,
   5.33595,      7370,
   5.36628,      7038,
   5.39661,      6867,
   5.42694,      6861,
   5.45726,      6461,
   5.48759,      6472,
   5.51792,      6186,
   5.54825,      6288,
   5.57858,      6191,
    5.6089,      6122,
   5.63923,      6017,
   5.66956,      5941,
   5.69989,      5937,
   5.73022,      5945,
   5.76055,      5544,
   5.79087,      5471,
    5.8212,      5642,
   5.85153,      5475,
   5.88186,      5443,
   5.91219,      5208,
   5.94251,      5269,
   5.97284,      5161,
   6.00317,      5090,
    6.0335,      5018,
   6.06383,      4903,
   6.09415,      4998,
   6.12448,      4847,
   6.15481,      4755,
   6.18514,      4700,
   6.21547,      4814,
    6.2458,      4565,
   6.27612,      4638,
   6.30645,      4581,
   6.33678,      4416,
   6.36711,      4434,
   6.39744,      4262,
   6.42776,      4241,
   6.45809,      4180,
   6.48842,      3973,
   6.51875,      4012,
   6.54908,      3956,
    6.5794,      3992,
   6.60973,      3972,
   6.64006,      3911,
   6.67039,      3932,
   6.70072,      3769,
   6.73105,      3731,
   6.76137,      3729,
    6.7917,      3740,
   6.82203,      3601,
   6.85236,      3614,
   6.88269,      3451,
   6.91301,      3528,
   6.94334,      3429,
   6.97367,      3449,
     7.004,      3377,
   7.03433,      3306,
   7.06466,      3312,
   7.09498,      3272,
   7.12531,      3241,
   7.15564,      3259,
   7.18597,      3175,
    7.2163,      3144,
   7.24662,      3172,
   7.27695,      3159,
   7.30728,      3112,
   7.33761,      2918,
   7.36794,      3053,
   7.39826,      3018,
   7.42859,      2951,
   7.45892,      2878,
   7.48925,      2778,
   7.51958,      2882,
   7.54991,      2878,
   7.58023,      2756,
   7.61056,      2680,
   7.64089,      2655,
   7.67122,      2784,
   7.70155,      2715,
   7.73187,      2668,
    7.7622,      2500,
   7.79253,      2650,
   7.82286,      2477,
   7.85319,      2540,
   7.88352,      2497,
   7.91384,      2510,
   7.94417,      2459,
    7.9745,      2504,
   8.00483,      2372,
   8.03516,      2416,
   8.06548,      2343,
   8.09581,      2362,
   8.12614,      2288,
   8.15647,      2237,
    8.1868,      2284,
   8.21712,      2330,
   8.24745,      2246,
   8.27778,      2142,
   8.30811,      2184,
   8.33844,      2077,
   8.36877,      2172,
   8.39909,      2138,
   8.42942,      2096,
   8.45975,      2093,
   8.49008,      2076,
   8.52041,      2019,
   8.55073,      2041,
   8.58106,      2111,
   8.61139,      2025,
   8.64172,      1996,
   8.67205,      2004,
   8.70237,      1976,
    8.7327,      1844,
   8.76303,      2013,
   8.79336,      1975,
   8.82369,      1956,
   8.85402,      1829,
   8.88434,      1868,
   8.91467,      1847,
     8.945,      1796,
   8.97533,      1955,
   9.00566,      1821,
   9.03598,      1851,
   9.06631,      1859,
   9.09664,      1823,
   9.12697,      1715,
    9.1573,      1737,
   9.18763,      1798,
   9.21795,      1701,
   9.24828,      1796,
   9.27861,      1702,
   9.30894,      1776,
   9.33927,      1736,
   9.36959,      1708,
   9.39992,      1688,
   9.43025,      1740,
   9.46058,      1687,
   9.49091,      1701,
   9.52123,      1702,
   9.55156,      1609,
   9.58189,      1692,
   9.61222,      1674,
   9.64255,      1628,
   9.67288,      1636,
    9.7032,      1650,
   9.73353,      1523,
   9.76386,      1542,
   9.79419,      1655,
   9.82452,      1523,
   9.85484,      1550,
   9.88517,      1660,
    9.9155,      1561,
   9.94583,      1577,
   9.97616,      1557,
   10.0065,      1516,
   10.0368,      1524,
   10.0671,      1595,
   10.0975,      1579,
   10.1278,      1616,
   10.1581,      1544,
   10.1885,      1534,
   10.2188,      1440,
   10.2491,      1520,
   10.2794,      1544,
   10.3098,      1507,
   10.3401,      1552,
   10.3704,      1483,
   10.4008,      1558,
   10.4311,      1502,
   10.4614,      1539,
   10.4917,      1437,
   10.5221,      1420,
   10.5524,      1554,
   10.5827,      1475,
    10.613,      1469,
   10.6434,      1461,
   10.6737,      1393,
    10.704,      1459,
   10.7344,      1371,
   10.7647,      1458,
    10.795,      1404,
   10.8253,      1439,
   10.8557,      1435,
    10.886,      1463,
   10.9163,      1448,
   10.9467,      1428,
    10.977,      1473,
   11.0073,      1443,
   11.0376,      1484,
    11.068,      1407,
   11.0983,      1369,
   11.1286,      1526,
    11.159,      1341,
   11.1893,      1373,
   11.2196,      1429,
   11.2499,      1402,
   11.2803,      1411,
   11.3106,      1503,
   11.3409,      1350,
   11.3713,      1346,
   11.4016,      1290,
   11.4319,      1400,
   11.4622,      1280,
   11.4926,      1428,
   11.5229,      1307,
   11.5532,      1394,
   11.5835,      1340,
   11.6139,      1411,
   11.6442,      1367,
   11.6745,      1437,
   11.7049,      1351,
   11.7352,      1357,
   11.7655,      1391,
   11.7958,      1344,
   11.8262,      1334,
   11.8565,      1430,
   11.8868,      1322,
   11.9172,      1353,
   11.9475,      1312,
   11.9778,      1344,
   12.0081,      1317,
   12.0385,      1302,
   12.0688,      1442,
   12.0991,      1328,
   12.1295,      1295,
   12.1598,      1230,
   12.1901,      1318,
   12.2204,      1314,
   12.2508,      1355,
   12.2811,      1271,
   12.3114,      1319,
   12.3418,      1309,
   12.3721,      1431,
   12.4024,      1289,
   12.4327,      1276,
   12.4631,      1210,
   12.4934,      1323,
   12.5237,      1296,
    12.554,      1349,
   12.5844,      1348,
   12.6147,      1267,
    12.645,      1343,
   12.6754,      1255,
   12.7057,      1303,
    12.736,      1306,
   12.7663,      1261,
   12.7967,      1231,
    12.827,      1313,
   12.8573,      1228,
   12.8877,      1295,
    12.918,      1253,
   12.9483,      1305,
   12.9786,      1293,
    13.009,      1276,
   13.0393,      1363,
   13.0696,      1298,
      13.1,      1313,
   13.1303,      1284,
   13.1606,      1275,
   13.1909,      1243,
   13.2213,      1210,
   13.2516,      1318,
   13.2819,      1275,
   13.3123,      1265,
   13.3426,      1269,
   13.3729,      1343,
   13.4032,      1343,
   13.4336,      1378,
   13.4639,      1488,
   13.4942,      1630,
   13.5245,      1655,
   13.5549,      1501,
   13.5852,      1349,
   13.6155,      1226,
   13.6459,      1269,
   13.6762,      1281,
   13.7065,      1284,
   13.7368,      1217,
   13.7672,      1241,
   13.7975,      1163,
   13.8278,      1212,
   13.8582,      1207,
   13.8885,      1178,
   13.9188,      1140,
   13.9491,      1234,
   13.9795,      1206,
   14.0098,      1257,
   14.0401,      1254,
   14.0705,      1204,
   14.1008,      1191,
   14.1311,      1227,
   14.1614,      1231,
   14.1918,      1237,
   14.2221,      1245,
   14.2524,      1222,
   14.2828,      1141,
   14.3131,      1155,
   14.3434,      1221,
   14.3737,      1162,
   14.4041,      1159,
   14.4344,      1156,
   14.4647,      1181,
   14.4951,      1211,
   14.5254,      1160,
   14.5557,      1164,
    14.586,      1168,
   14.6164,      1179,
   14.6467,      1182,
    14.677,      1206,
   14.7073,      1201,
   14.7377,      1143,
    14.768,      1146,
   14.7983,      1199,
   14.8287,      1157,
    14.859,      1156,
   14.8893,      1168,
   14.9196,      1197,
     14.95,      1141,
   14.9803,      1265,
   15.0106,      1240,
    15.041,      1180,
   15.0713,      1161,
   15.1016,      1146,
   15.1319,      1148,
   15.1623,      1150,
   15.1926,      1181,
   15.2229,      1086,
   15.2533,      1146,
   15.2836,      1060,
   15.3139,      1112,
   15.3442,      1141,
   15.3746,      1104,
   15.4049,      1158,
   15.4352,      1069,
   15.4656,      1029,
   15.4959,      1112,
   15.5262,      1128,
   15.5565,      1109,
   15.5869,      1072,
   15.6172,      1063,
   15.6475,      1139,
   15.6778,      1050,
   15.7082,      1090,
   15.7385,      1095,
   15.7688,      1101,
   15.7992,      1090,
   15.8295,      1137,
   15.8598,      1133,
   15.8901,      1064,
   15.9205,      1063,
   15.9508,      1159,
   15.9811,      1122,
   16.0115,      1068,
   16.0418,      1101,
   16.0721,      1081,
   16.1024,      1078,
   16.1328,      1107,
   16.1631,      1041,
   16.1934,      1115,
   16.2238,      1018,
   16.2541,      1138,
   16.2844,      1087,
   16.3147,      1055,
   16.3451,      1084,
   16.3754,      1058,
   16.4057,      1070,
   16.4361,      1070,
   16.4664,      1072,
   16.4967,      1094,
    16.527,      1142,
   16.5574,      1160,
   16.5877,      1276,
    16.618,      1380,
   16.6483,      1443,
   16.6787,      1471,
    16.709,      1328,
   16.7393,      1155,
   16.7697,      1141,
      16.8,      1016,
   16.8303,      1005,
   16.8606,      1015,
    16.891,       998,
   16.9213,      1063,
   16.9516,      1081,
    16.982,      1093,
   17.0123,      1067,
   17.0426,      1069,
   17.0729,       992,
   17.1033,      1006,
   17.1336,      1038,
   17.1639,       970,
   17.1943,      1043,
   17.2246,      1098,
   17.2549,      1066,
   17.2852,      1041,
   17.3156,      1051,
   17.3459,      1017,
   17.3762,       984,
   17.4066,      1004,
   17.4369,      1045,
   17.4672,      1076,
   17.4975,      1032,
   17.5279,       969,
   17.5582,      1054,
   17.5885,      1040,
   17.6188,      1020,
   17.6492,      1021,
   17.6795,      1038,
   17.7098,       997,
   17.7402,       949,
   17.7705,      1068,
   17.8008,      1036,
   17.8311,      1004,
   17.8615,      1035,
   17.8918,       998,
   17.9221,      1023,
   17.9525,      1027,
   17.9828,       975,
   18.0131,       968,
   18.0434,       989,
   18.0738,      1031,
   18.1041,      1027,
   18.1344,      1023,
   18.1648,       987,
   18.1951,      1006,
   18.2254,      1012,
   18.2557,      1016,
   18.2861,      1002,
   18.3164,       988,
   18.3467,       930,
   18.3771,       960,
   18.4074,      1038,
   18.4377,       998,
    18.468,      1024,
   18.4984,       965,
   18.5287,      1034,
    18.559,       943,
   18.5893,       976,
   18.6197,      1025,
     18.65,       977,
   18.6803,       986,
   18.7107,       953,
    18.741,       991,
   18.7713,       986,
   18.8016,       986,
    18.832,       919,
   18.8623,      1046,
   18.8926,       991,
    18.923,      1055,
   18.9533,       947,
   18.9836,       951,
   19.0139,      1001,
   19.0443,      1023,
   19.0746,       964,
   19.1049,       942,
   19.1353,       917,
   19.1656,       951,
   19.1959,       955,
   19.2262,      1000,
   19.2566,       935,
   19.2869,       950,
   19.3172,       950,
   19.3476,       939,
   19.3779,       943,
   19.4082,       990,
   19.4385,       954,
   19.4689,      1018,
   19.4992,       962,
   19.5295,       949,
   19.5599,       979,
   19.5902,       955,
   19.6205,       966,
   19.6508,       916,
   19.6812,       940,
   19.7115,       923,
   19.7418,       952,
   19.7721,       960,
   19.8025,       947,
   19.8328,       926,
   19.8631,       943,
   19.8935,       940,
   19.9238,       959,
   19.9541,       957,
   19.9844,       874,
   20.0148,       966,
   20.0451,      1046,
   20.0754,       901,
   20.1058,       932,
   20.1361,       916,
   20.1664,       889,
   20.1967,       954,
   20.2271,       961,
   20.2574,       930,
   20.2877,       916,
   20.3181,       961,
   20.3484,       923,
   20.3787,       934,
    20.409,       893,
   20.4394,       912,
   20.4697,       927,
      20.5,       873,
   20.5304,       931,
   20.5607,       928,
    20.591,       938,
   20.6213,       934,
   20.6517,       981,
    20.682,       963,
   20.7123,       918,
   20.7426,       905,
    20.773,       908,
   20.8033,       933,
   20.8336,       996,
    20.864,       951,
   20.8943,       935,
   20.9246,       945,
   20.9549,       915,
   20.9853,       955,
   21.0156,       971,
   21.0459,       886,
   21.0763,       896,
   21.1066,       963,
   21.1369,       851,
   21.1672,       906,
   21.1976,       923,
   21.2279,       922,
   21.2582,       925,
   21.2886,       904,
   21.3189,       983,
   21.3492,       905,
   21.3795,       936,
   21.4099,       932,
   21.4402,       970,
   21.4705,       941,
   21.5009,       886,
   21.5312,       920,
   21.5615,       924,
   21.5918,       897,
   21.6222,       918,
   21.6525,       916,
   21.6828,       914,
   21.7131,       880,
   21.7435,       911,
   21.7738,       865,
   21.8041,       903,
   21.8345,       915,
   21.8648,       957,
   21.8951,       886,
   21.9254,       966,
   21.9558,       900,
   21.9861,       874,
   22.0164,       881,
   22.0468,       941,
   22.0771,       878,
   22.1074,       930,
   22.1377,       964,
   22.1681,       889,
   22.1984,       956,
   22.2287,       983,
   22.2591,       908,
   22.2894,       906,
   22.3197,       945,
     22.35,       970,
   22.3804,       923,
   22.4107,       917,
    22.441,       954,
   22.4714,       899,
   22.5017,       932,
    22.532,       936,
   22.5623,       953,
   22.5927,       981,
    22.623,       925,
   22.6533,      1035,
   22.6836,      1015,
    22.714,      1016,
   22.7443,      1025,
   22.7746,       999,
    22.805,      1080,
   22.8353,      1028,
   22.8656,       998,
   22.8959,      1064,
   22.9263,      1077,
   22.9566,      1094,
   22.9869,      1063,
   23.0173,      1053,
   23.0476,      1047,
   23.0779,      1044,
   23.1082,      1102,
   23.1386,      1058,
   23.1689,      1118,
   23.1992,      1040,
   23.2296,      1076,
   23.2599,      1118,
   23.2902,      1071,
   23.3205,      1123,
   23.3509,      1181,
   23.3812,      1196,
   23.4115,      1097,
   23.4419,      1050,
   23.4722,      1042,
   23.5025,       938,
   23.5328,      1001,
   23.5632,      1007,
   23.5935,       940,
   23.6238,       990,
   23.6541,      1013,
   23.6845,       945,
   23.7148,      1010,
   23.7451,       985,
   23.7755,       983,
   23.8058,       946,
   23.8361,      1030,
   23.8664,       977,
   23.8968,       971,
   23.9271,       959,
   23.9574,       978,
   23.9878,      1028,
   24.0181,      1027,
   24.0484,      1181,
   24.0787,      1356,
   24.1091,      1478,
   24.1394,      1415,
   24.1697,      1312,
   24.2001,      1220,
   24.2304,      1107,
   24.2607,      1062,
    24.291,      1050,
   24.3214,      1044,
   24.3517,      1040,
    24.382,       993,
   24.4124,       993,
   24.4427,       994,
    24.473,       965,
   24.5033,      1019,
   24.5337,      1016,
    24.564,       965,
   24.5943,       965,
   24.6246,       923,
    24.655,       980,
   24.6853,       954,
   24.7156,       949,
    24.746,       844,
   24.7763,       942,
   24.8066,       901,
   24.8369,       921,
   24.8673,       896,
   24.8976,       858,
   24.9279,       912,
   24.9583,       863,
   24.9886,       904,
   25.0189,       867,
   25.0492,       959,
   25.0796,       914,
   25.1099,       875,
   25.1402,       884,
   25.1706,       862,
   25.2009,       839,
   25.2312,       890,
   25.2615,       858,
   25.2919,       900,
   25.3222,       899,
   25.3525,       868,
   25.3829,       839,
   25.4132,       835,
   25.4435,       863,
   25.4738,       881,
   25.5042,       896,
   25.5345,       907,
   25.5648,       874,
   25.5952,       874,
   25.6255,       858,
   25.6558,       853,
   25.6861,       875,
   25.7165,       902,
   25.7468,       843,
   25.7771,       889,
   25.8074,       822,
   25.8378,       875,
   25.8681,       870,
   25.8984,       891,
   25.9288,       831,
   25.9591,       867,
   25.9894,       813,
   26.0197,       881,
   26.0501,       844,
   26.0804,       874,
   26.1107,       859,
   26.1411,       845,
   26.1714,       871,
   26.2017,       878,
    26.232,       832,
   26.2624,       868,
   26.2927,       869,
    26.323,       880,
   26.3534,       906,
   26.3837,       835,
    26.414,       898,
   26.4443,       853,
   26.4747,       906,
    26.505,       956,
   26.5353,       872,
   26.5657,       877,
    26.596,       852,
   26.6263,       861,
   26.6566,       861,
    26.687,       890,
   26.7173,       874,
   26.7476,       904,
   26.7779,       932,
   26.8083,      1014,
   26.8386,      1057,
   26.8689,      1090,
   26.8993,      1097,
   26.9296,      1188,
   26.9599,      1188,
   26.9902,      1249,
   27.0206,      1376,
   27.0509,      1502,
   27.0812,      1697,
   27.1116,      1798,
   27.1419,      1901,
   27.1722,      1988,
   27.2025,      1952,
   27.2329,      1738,
   27.2632,      1646,
   27.2935,      1461,
   27.3239,      1238,
   27.3542,      1164,
   27.3845,      1183,
   27.4148,      1024,
   27.4452,      1049,
   27.4755,      1006,
   27.5058,      1038,
   27.5362,      1053,
   27.5665,       972,
   27.5968,       959,
   27.6271,       914,
   27.6575,       939,
   27.6878,       921,
   27.7181,       880,
   27.7484,       851,
   27.7788,       856,
   27.8091,       891,
   27.8394,       872,
   27.8698,       826,
   27.9001,       837,
   27.9304,       868,
   27.9607,       848,
   27.9911,       840,
   28.0214,       805,
   28.0517,       812,
   28.0821,       827,
   28.1124,       886,
   28.1427,       801,
    28.173,       812,
   28.2034,       845,
   28.2337,       834,
    28.264,       837,
   28.2944,       826,
   28.3247,       840,
    28.355,       841,
   28.3853,       821,
   28.4157,       800,
    28.446,       802,
   28.4763,       849,
   28.5067,       765,
    28.537,       839,
   28.5673,       828,
   28.5976,       826,
    28.628,       832,
   28.6583,       837,
   28.6886,       812,
   28.7189,       847,
   28.7493,       804,
   28.7796,       839,
   28.8099,       820,
   28.8403,       781,
   28.8706,       827,
   28.9009,       838,
   28.9312,       835,
   28.9616,       889,
   28.9919,       870,
   29.0222,       799,
   29.0526,       816,
   29.0829,       828,
   29.1132,       815,
   29.1435,       815,
   29.1739,       797,
   29.2042,       832,
   29.2345,       851,
   29.2649,       819,
   29.2952,       770,
   29.3255,       784,
   29.3558,       855,
   29.3862,       797,
   29.4165,       882,
   29.4468,       787,
   29.4772,       804,
   29.5075,       837,
   29.5378,       835,
   29.5681,       804,
   29.5985,       794,
   29.6288,       837,
   29.6591,       840,
   29.6894,       785,
   29.7198,       862,
   29.7501,       875,
   29.7804,       824,
   29.8108,       896,
   29.8411,       848,
   29.8714,       816,
   29.9017,       893,
   29.9321,       819,
   29.9624,       889,
   29.9927,       901,
   30.0231,       881,
   30.0534,       892,
   30.0837,       917,
    30.114,       918,
   30.1444,       896,
   30.1747,       922,
    30.205,      1018,
   30.2354,      1049,
   30.2657,      1066,
    30.296,      1115,
   30.3263,      1348,
   30.3567,      1418,
    30.387,      1759,
   30.4173,      2236,
   30.4477,      2826,
    30.478,      3783,
   30.5083,      4020,
   30.5386,      3777,
    30.569,      3307,
   30.5993,      2557,
   30.6296,      2036,
     30.66,      1724,
   30.6903,      1402,
   30.7206,      1325,
   30.7509,      1145,
   30.7813,      1098,
   30.8116,      1019,
   30.8419,      1014,
   30.8722,      1016,
   30.9026,       971,
   30.9329,      1043,
   30.9632,      1082,
   30.9936,      1204,
   31.0239,      1357,
   31.0542,      1270,
   31.0845,      1168,
   31.1149,      1175,
   31.1452,      1032,
   31.1755,      1033,
   31.2059,      1040,
   31.2362,      1107,
   31.2665,      1105,
   31.2968,      1145,
   31.3272,      1204,
   31.3575,      1204,
   31.3878,      1207,
   31.4182,      1158,
   31.4485,      1184,
   31.4788,      1279,
   31.5091,      1288,
   31.5395,      1372,
   31.5698,      1554,
   31.6001,      1705,
   31.6305,      2072,
   31.6608,      2278,
   31.6911,      2394,
   31.7214,      2266,
   31.7518,      1938,
   31.7821,      1631,
   31.8124,      1391,
   31.8427,      1233,
   31.8731,      1109,
   31.9034,      1040,
   31.9337,      1004,
   31.9641,       941,
   31.9944,       916,
   32.0247,       928,
    32.055,       914,
   32.0854,       882,
   32.1157,       881,
    32.146,       844,
   32.1764,       786,
   32.2067,       864,
    32.237,       809,
   32.2673,       821,
   32.2977,       853,
    32.328,       858,
   32.3583,       838,
   32.3887,       825,
    32.419,       819,
   32.4493,       807,
   32.4796,       832,
     32.51,       801,
   32.5403,       798,
   32.5706,       823,
    32.601,       803,
   32.6313,       799,
   32.6616,       736,
   32.6919,       835,
   32.7223,       777,
   32.7526,       770,
   32.7829,       758,
   32.8132,       769,
   32.8436,       827,
   32.8739,       777,
   32.9042,       777,
   32.9346,       743,
   32.9649,       737,
   32.9952,       780,
   33.0255,       802,
   33.0559,       718,
   33.0862,       756,
   33.1165,       763,
   33.1469,       777,
   33.1772,       744,
   33.2075,       795,
   33.2378,       769,
   33.2682,       825,
   33.2985,       782,
   33.3288,       810,
   33.3592,       756,
   33.3895,       750,
   33.4198,       816,
   33.4501,       807,
   33.4805,       833,
   33.5108,       773,
   33.5411,       876,
   33.5715,       890,
   33.6018,       857,
   33.6321,       875,
   33.6624,       903,
   33.6928,       912,
   33.7231,       909,
   33.7534,       867,
   33.7837,       939,
   33.8141,       984,
   33.8444,      1046,
   33.8747,      1186,
   33.9051,      1234,
   33.9354,      1233,
   33.9657,      1184,
    33.996,      1171,
   34.0264,      1163,
   34.0567,      1121,
    34.087,      1139,
   34.1174,      1218,
   34.1477,      1215,
    34.178,      1430,
   34.2083,      1770,
   34.2387,      2117,
    34.269,      2581,
   34.2993,      2828,
   34.3297,      3012,
     34.36,      3117,
   34.3903,      3074,
   34.4206,      3450,
    34.451,      3888,
   34.4813,      4524,
   34.5116,      5627,
    34.542,      6766,
   34.5723,      7965,
   34.6026,      9026,
   34.6329,     10174,
   34.6633,     10922,
   34.6936,     11369,
   34.7239,     11084,
   34.7542,     10823,
   34.7846,     10018,
   34.8149,      9068,
   34.8452,      8016,
   34.8756,      7125,
   34.9059,      6043,
   34.9362,      5170,
   34.9665,      4507,
   34.9969,      3896,
   35.0272,      3377,
   35.0575,      2978,
   35.0879,      2735,
   35.1182,      2411,
   35.1485,      2248,
   35.1788,      2129,
   35.2092,      1981,
   35.2395,      1826,
   35.2698,      1794,
   35.3002,      1641,
   35.3305,      1634,
   35.3608,      1499,
   35.3911,      1562,
   35.4215,      1451,
   35.4518,      1350,
   35.4821,      1310,
   35.5125,      1323,
   35.5428,      1328,
   35.5731,      1275,
   35.6034,      1261,
   35.6338,      1167,
   35.6641,      1243,
   35.6944,      1191,
   35.7248,      1133,
   35.7551,      1121,
   35.7854,      1143,
   35.8157,      1181,
   35.8461,      1217,
   35.8764,      1362,
   35.9067,      1303,
    35.937,      1318,
   35.9674,      1250,
   35.9977,      1227,
    36.028,      1212,
   36.0584,      1173,
   36.0887,      1143,
    36.119,      1148,
   36.1493,      1137,
   36.1797,      1155,
     36.21,      1286,
   36.2403,      1303,
   36.2707,      1245,
    36.301,      1129,
   36.3313,      1089,
   36.3616,      1037,
    36.392,       933,
   36.4223,       849,
   36.4526,       862,
    36.483,       829,
   36.5133,       794,
   36.5436,       801,
   36.5739,       731,
   36.6043,       802,
   36.6346,       781,
   36.6649,       808,
   36.6953,       813,
   36.7256,       788,
   36.7559,       796,
   36.7862,       769,
   36.8166,       774,
   36.8469,       769,
   36.8772,       793,
   36.9075,       857,
   36.9379,       856,
   36.9682,       858,
   36.9985,       873,
   37.0289,       889,
   37.0592,       994,
   37.0895,      1011,
   37.1198,       965,
   37.1502,       969,
   37.1805,       891,
   37.2108,       910,
   37.2412,       941,
   37.2715,       920,
   37.3018,       919,
   37.3321,       941,
   37.3625,       879,
   37.3928,       904,
   37.4231,       840,
   37.4535,       856,
   37.4838,       881,
   37.5141,       858,
   37.5444,       920,
   37.5748,       977,
   37.6051,      1027,
   37.6354,       981,
   37.6658,       944,
   37.6961,       921,
   37.7264,       849,
   37.7567,       757,
   37.7871,       776,
   37.8174,       757,
   37.8477,       787,
    37.878,       785,
   37.9084,       787,
   37.9387,       817,
    37.969,       805,
   37.9994,       803,
   38.0297,       756,
     38.06,       864,
   38.0903,       834,
   38.1207,       898,
    38.151,       953,
   38.1813,      1006,
   38.2117,      1001,
    38.242,       989,
   38.2723,       930,
   38.3026,       910,
    38.333,       964,
   38.3633,       930,
   38.3936,       991,
    38.424,       960,
   38.4543,      1126,
   38.4846,      1190,
   38.5149,      1501,
   38.5453,      1804,
   38.5756,      2097,
   38.6059,      2286,
   38.6363,      2192,
   38.6666,      1910,
   38.6969,      1751,
   38.7272,      1463,
   38.7576,      1295,
   38.7879,      1061,
   38.8182,      1012,
   38.8485,       974,
   38.8789,       946,
   38.9092,       912,
   38.9395,       964,
   38.9699,       887,
   39.0002,       843,
   39.0305,       821,
   39.0608,       783,
   39.0912,       745,
   39.1215,       757,
   39.1518,       727,
   39.1822,       737,
   39.2125,       693,
   39.2428,       699,
   39.2731,       734,
   39.3035,       685,
   39.3338,       684,
   39.3641,       698,
   39.3945,       725,
   39.4248,       654,
   39.4551,       659,
   39.4854,       634,
   39.5158,       707,
   39.5461,       629,
   39.5764,       682,
   39.6068,       665,
   39.6371,       673,
   39.6674,       680,
   39.6977,       673,
   39.7281,       663,
   39.7584,       663,
   39.7887,       647,
    39.819,       680,
   39.8494,       704,
   39.8797,       676,
     39.91,       664,
   39.9404,       673,
   39.9707,       734,
    40.001,       747,
   40.0313,       662,
   40.0617,       652,
    40.092,       708,
   40.1223,       754,
   40.1527,       677,
    40.183,       726,
   40.2133,       746,
   40.2436,       637,
    40.274,       687,
   40.3043,       699,
   40.3346,       750,
    40.365,       731,
   40.3953,       723,
   40.4256,       736,
   40.4559,       768,
   40.4863,       773,
   40.5166,       755,
   40.5469,       743,
   40.5773,       788,
   40.6076,       755,
   40.6379,       797,
   40.6682,       751,
   40.6986,       746,
   40.7289,       692,
   40.7592,       771,
   40.7895,       722,
   40.8199,       727,
   40.8502,       757,
   40.8805,       700,
   40.9109,       753,
   40.9412,       751,
   40.9715,       761,
   41.0018,       742,
   41.0322,       723,
   41.0625,       740,
   41.0928,       754,
   41.1232,       693,
   41.1535,       739,
   41.1838,       728,
   41.2141,       692,
   41.2445,       739,
   41.2748,       715,
   41.3051,       699,
   41.3355,       720,
   41.3658,       754,
   41.3961,       732,
   41.4264,       757,
   41.4568,       706,
   41.4871,       766,
   41.5174,       684,
   41.5478,       723,
   41.5781,       754,
   41.6084,       795,
   41.6387,       755,
   41.6691,       774,
   41.6994,       744,
   41.7297,       776,
   41.7601,       802,
   41.7904,       789,
   41.8207,       814,
    41.851,       850,
   41.8814,       915,
   41.9117,       893,
    41.942,      1010,
   41.9723,      1154,
   42.0027,      1306,
    42.033,      1446,
   42.0633,      1629,
   42.0937,      1796,
    42.124,      1872,
   42.1543,      1857,
   42.1846,      1916,
    42.215,      1863,
   42.2453,      1754,
   42.2756,      1713,
    42.306,      1703,
   42.3363,      1710,
   42.3666,      1791,
   42.3969,      1830,
   42.4273,      1932,
   42.4576,      2037,
   42.4879,      2057,
   42.5183,      2050,
   42.5486,      2070,
   42.5789,      1970,
   42.6092,      1854,
   42.6396,      1712,
   42.6699,      1586,
   42.7002,      1573,
   42.7306,      1357,
   42.7609,      1277,
   42.7912,      1243,
   42.8215,      1151,
   42.8519,      1098,
   42.8822,      1062,
   42.9125,       990,
   42.9428,       925,
   42.9732,       916,
   43.0035,       826,
   43.0338,       816,
   43.0642,       822,
   43.0945,       808,
   43.1248,       838,
   43.1551,       791,
   43.1855,       823,
   43.2158,       834,
   43.2461,       835,
   43.2765,       844,
   43.3068,       897,
   43.3371,       882,
   43.3674,       918,
   43.3978,       971,
   43.4281,       999,
   43.4584,      1042,
   43.4888,      1020,
   43.5191,      1128,
   43.5494,      1086,
   43.5797,      1118,
   43.6101,      1108,
   43.6404,       968,
   43.6707,       985,
   43.7011,       928,
   43.7314,       885,
   43.7617,       841,
    43.792,       853,
   43.8224,       847,
   43.8527,       786,
    43.883,       876,
   43.9133,       841,
   43.9437,       847,
    43.974,       855,
   44.0043,       798,
   44.0347,       926,
    44.065,       887,
   44.0953,      1046,
   44.1256,      1165,
    44.156,      1377,
   44.1863,      1650,
   44.2166,      1835,
    44.247,      1783,
   44.2773,      1657,
   44.3076,      1540,
   44.3379,      1430,
   44.3683,      1327,
   44.3986,      1119,
   44.4289,       984,
   44.4593,       903,
   44.4896,       930,
   44.5199,       872,
   44.5502,       862,
   44.5806,       857,
   44.6109,       852,
   44.6412,       915,
   44.6716,       855,
   44.7019,       926,
   44.7322,       922,
   44.7625,      1016,
   44.7929,      1105,
   44.8232,      1289,
   44.8535,      1393,
   44.8838,      1336,
   44.9142,      1429,
   44.9445,      1416,
   44.9748,      1287,
   45.0052,      1308,
   45.0355,      1297,
   45.0658,      1274,
   45.0961,      1300,
   45.1265,      1213,
   45.1568,      1141,
   45.1871,      1145,
   45.2175,      1000,
   45.2478,       844,
   45.2781,       861,
   45.3084,       818,
   45.3388,       747,
   45.3691,       761,
   45.3994,       706,
   45.4298,       679,
   45.4601,       701,
   45.4904,       673,
   45.5207,       675,
   45.5511,       688,
   45.5814,       644,
   45.6117,       677,
   45.6421,       653,
   45.6724,       646,
   45.7027,       654,
    45.733,       671,
   45.7634,       695,
   45.7937,       681,
    45.824,       666,
   45.8543,       670,
   45.8847,       683,
    45.915,       685,
   45.9453,       729,
   45.9757,       739,
    46.006,       738,
   46.0363,       761,
   46.0666,       838,
    46.097,      1023,
   46.1273,       998,
   46.1576,      1031,
    46.188,       974,
   46.2183,       975,
   46.2486,       957,
   46.2789,       969,
   46.3093,       986,
   46.3396,      1035,
   46.3699,      1109,
   46.4003,      1244,
   46.4306,      1346,
   46.4609,      1482,
   46.4912,      1700,
   46.5216,      1819,
   46.5519,      1918,
   46.5822,      2071,
   46.6126,      2268,
   46.6429,      2366,
   46.6732,      2281,
   46.7035,      2263,
   46.7339,      2166,
   46.7642,      2123,
   46.7945,      2012,
   46.8249,      1898,
   46.8552,      1719,
   46.8855,      1674,
   46.9158,      1538,
   46.9462,      1427,
   46.9765,      1404,
   47.0068,      1220,
   47.0371,      1223,
   47.0675,      1104,
   47.0978,      1084,
   47.1281,       978,
   47.1585,       949,
   47.1888,       934,
   47.2191,       920,
   47.2494,       876,
   47.2798,       843,
   47.3101,       783,
   47.3404,       814,
   47.3708,       771,
   47.4011,       815,
   47.4314,       784,
   47.4617,       750,
   47.4921,       779,
   47.5224,       758,
   47.5527,       812,
   47.5831,       784,
   47.6134,       727,
   47.6437,       722,
    47.674,       695,
   47.7044,       715,
   47.7347,       747,
    47.765,       733,
   47.7954,       755,
   47.8257,       773,
    47.856,       763,
   47.8863,       749,
   47.9167,       752,
    47.947,       833,
   47.9773,       825,
   48.0076,       850,
    48.038,       839,
   48.0683,       894,
   48.0986,       928,
    48.129,       975,
   48.1593,      1020,
   48.1896,       977,
   48.2199,       937,
   48.2503,       889,
   48.2806,       870,
   48.3109,       824,
   48.3413,       706,
   48.3716,       716,
   48.4019,       742,
   48.4322,       739,
   48.4626,       667,
   48.4929,       636,
   48.5232,       644,
   48.5536,       615,
   48.5839,       645,
   48.6142,       603,
   48.6445,       632,
   48.6749,       659,
   48.7052,       600,
   48.7355,       632,
   48.7659,       609,
   48.7962,       611,
   48.8265,       605,
   48.8568,       555,
   48.8872,       584,
   48.9175,       584,
   48.9478,       601,
   48.9781,       597,
   49.0085,       588,
   49.0388,       580,
   49.0691,       592,
   49.0995,       559,
   49.1298,       566,
   49.1601,       573,
   49.1904,       609,
   49.2208,       562,
   49.2511,       630,
   49.2814,       620,
   49.3118,       571,
   49.3421,       560,
   49.3724,       593,
   49.4027,       626,
   49.4331,       569,
   49.4634,       573,
   49.4937,       571,
   49.5241,       570,
   49.5544,       608,
   49.5847,       558,
    49.615,       606,
   49.6454,       585,
   49.6757,       585,
    49.706,       595,
   49.7364,       665,
   49.7667,       628,
    49.797,       641,
   49.8273,       661,
   49.8577,       642,
    49.888,       665,
   49.9183,       741,
   49.9486,       717,
    49.979,       717,
   50.0093,       717,
   50.0396,       717,
     50.07,       821,
   50.1003,       836,
   50.1306,       903,
   50.1609,      1012,
   50.1913,      1093,
   50.2216,      1196,
   50.2519,      1152,
   50.2823,      1054,
   50.3126,      1014,
   50.3429,      1011,
   50.3732,       896,
   50.4036,       824,
   50.4339,       785,
   50.4642,       758,
   50.4946,       765,
   50.5249,       804,
   50.5552,       885,
   50.5855,       888,
   50.6159,       880,
   50.6462,       864,
   50.6765,       927,
   50.7069,       894,
   50.7372,       889,
   50.7675,       902,
   50.7978,       927,
   50.8282,       889,
   50.8585,       981,
   50.8888,      1054,
   50.9191,      1212,
   50.9495,      1281,
   50.9798,      1391,
   51.0101,      1520,
   51.0405,      1608,
   51.0708,      1765,
   51.1011,      1867,
   51.1314,      1937,
   51.1618,      1930,
   51.1921,      1992,
   51.2224,      2028,
   51.2528,      1945,
   51.2831,      1865,
   51.3134,      1668,
   51.3437,      1681,
   51.3741,      1500,
   51.4044,      1518,
   51.4347,      1313,
   51.4651,      1325,
   51.4954,      1123,
   51.5257,      1090,
    51.556,      1010,
   51.5864,       973,
   51.6167,       918,
    51.647,       794,
   51.6774,       825,
   51.7077,       852,
    51.738,       820,
   51.7683,       786,
   51.7987,       778,
    51.829,       747,
   51.8593,       718,
   51.8897,       751,
     51.92,       716,
   51.9503,       706,
   51.9806,       718,
    52.011,       657,
   52.0413,       687,
   52.0716,       679,
   52.1019,       636,
   52.1323,       683,
   52.1626,       625,
   52.1929,       613,
   52.2233,       652,
   52.2536,       642,
   52.2839,       649,
   52.3142,       642,
   52.3446,       672,
   52.3749,       642,
   52.4052,       635,
   52.4356,       658,
   52.4659,       674,
   52.4962,       657,
   52.5265,       630,
   52.5569,       678,
   52.5872,       664,
   52.6175,       675,
   52.6479,       611,
   52.6782,       654,
   52.7085,       640,
   52.7388,       596,
   52.7692,       638,
   52.7995,       610,
   52.8298,       643,
   52.8602,       654,
   52.8905,       659,
   52.9208,       666,
   52.9511,       629,
   52.9815,       633,
   53.0118,       639,
   53.0421,       678,
   53.0724,       606,
   53.1028,       622,
   53.1331,       699,
   53.1634,       658,
   53.1938,       683,
   53.2241,       651,
   53.2544,       713,
   53.2847,       709,
   53.3151,       701,
   53.3454,       788,
   53.3757,       760,
   53.4061,       800,
   53.4364,       759,
   53.4667,       840,
    53.497,       895,
   53.5274,       904,
   53.5577,       959,
    53.588,      1073,
   53.6184,      1209,
   53.6487,      1510,
    53.679,      1774,
   53.7093,      2215,
   53.7397,      2313,
     53.77,      2209,
   53.8003,      1978,
   53.8307,      1894,
    53.861,      1737,
   53.8913,      1490,
   53.9216,      1293,
    53.952,      1061,
   53.9823,       931,
   54.0126,       851,
   54.0429,       785,
   54.0733,       778,
   54.1036,       702,
   54.1339,       679,
   54.1643,       695,
   54.1946,       674,
   54.2249,       632,
   54.2552,       657,
   54.2856,       648,
   54.3159,       678,
   54.3462,       620,
   54.3766,       639,
   54.4069,       605,
   54.4372,       654,
   54.4675,       676,
   54.4979,       682,
   54.5282,       650,
   54.5585,       630,
   54.5889,       613,
   54.6192,       623,
   54.6495,       609,
   54.6798,       647,
   54.7102,       626,
   54.7405,       614,
   54.7708,       594,
   54.8012,       603,
   54.8315,       588,
   54.8618,       523,
   54.8921,       563,
   54.9225,       591,
   54.9528,       607,
   54.9831,       601,
   55.0134,       594,
   55.0438,       592,
   55.0741,       611,
   55.1044,       583,
   55.1348,       609,
   55.1651,       635,
   55.1954,       630,
   55.2257,       637,
   55.2561,       646,
   55.2864,       659,
   55.3167,       713,
   55.3471,       680,
   55.3774,       683,
   55.4077,       682,
    55.438,       665,
   55.4684,       695,
   55.4987,       716,
    55.529,       663,
   55.5594,       695,
   55.5897,       741,
     55.62,       709,
   55.6503,       775,
   55.6807,       811,
    55.711,       909,
   55.7413,       975,
   55.7717,      1079,
    55.802,      1121,
   55.8323,      1209,
   55.8626,      1232,
    55.893,      1284,
   55.9233,      1253,
   55.9536,      1280,
   55.9839,      1312,
   56.0143,      1264,
   56.0446,      1353,
   56.0749,      1344,
   56.1053,      1385,
   56.1356,      1429,
   56.1659,      1486,
   56.1962,      1568,
   56.2266,      1640,
   56.2569,      1630,
   56.2872,      1665,
   56.3176,      1813,
   56.3479,      1817,
   56.3782,      1829,
   56.4085,      1847,
   56.4389,      1935,
   56.4692,      1971,
   56.4995,      2035,
   56.5299,      2016,
   56.5602,      2106,
   56.5905,      2099,
   56.6208,      2139,
   56.6512,      2239,
   56.6815,      2219,
   56.7118,      2182,
   56.7422,      2236,
   56.7725,      2183,
   56.8028,      2115,
   56.8331,      2121,
   56.8635,      1974,
   56.8938,      1868,
   56.9241,      1749,
   56.9544,      1685,
   56.9848,      1675,
   57.0151,      1579,
   57.0454,      1477,
   57.0758,      1365,
   57.1061,      1304,
   57.1364,      1264,
   57.1667,      1197,
   57.1971,      1133,
   57.2274,      1095,
   57.2577,      1142,
   57.2881,      1153,
   57.3184,      1161,
   57.3487,      1211,
    57.379,      1257,
   57.4094,      1311,
   57.4397,      1426,
     57.47,      1525,
   57.5004,      1579,
   57.5307,      1605,
    57.561,      1695,
   57.5913,      1703,
   57.6217,      1836,
    57.652,      1810,
   57.6823,      1915,
   57.7127,      1851,
    57.743,      1854,
   57.7733,      1803,
   57.8036,      1838,
    57.834,      1770,
   57.8643,      1739,
   57.8946,      1551,
    57.925,      1503,
   57.9553,      1433,
   57.9856,      1389,
   58.0159,      1263,
   58.0463,      1280,
   58.0766,      1232,
   58.1069,      1162,
   58.1372,      1083,
   58.1676,      1015,
   58.1979,       985,
   58.2282,       952,
   58.2586,       947,
   58.2889,       867,
   58.3192,       880,
   58.3495,       873,
   58.3799,       867,
   58.4102,       869,
   58.4405,       853,
   58.4709,       807,
   58.5012,       762,
   58.5315,       768,
   58.5618,       776,
   58.5922,       741,
   58.6225,       762,
   58.6528,       799,
   58.6832,       820,
   58.7135,       806,
   58.7438,       792,
   58.7741,       806,
   58.8045,       864,
   58.8348,       916,
   58.8651,       911,
   58.8955,      1024,
   58.9258,      1174,
   58.9561,      1245,
   58.9864,      1256,
   59.0168,      1150,
   59.0471,      1169,
   59.0774,      1114,
   59.1077,      1100,
   59.1381,       979,
   59.1684,       983,
   59.1987,       806,
   59.2291,       801,
   59.2594,       728,
   59.2897,       703,
     59.32,       674,
   59.3504,       670,
   59.3807,       661,
    59.411,       621,
   59.4414,       598,
   59.4717,       580,
    59.502,       626,
   59.5323,       594,
   59.5627,       580,
    59.593,       616,
   59.6233,       616,
   59.6537,       595,
    59.684,       594,
   59.7143,       600,
   59.7446,       567,
    59.775,       595,
   59.8053,       557,
   59.8356,       599,
    59.866,       561,
   59.8963,       577,
   59.9266,       556,
   59.9569,       564,
   59.9873,       515,
   60.0176,       541,
   60.0479,       549,
   60.0782,       556,
   60.1086,       556,
   60.1389,       582,
   60.1692,       548,
   60.1996,       526,
   60.2299,       562,
   60.2602,       543,
   60.2905,       524,
   60.3209,       576,
   60.3512,       539,
   60.3815,       533,
   60.4119,       517,
   60.4422,       516,
   60.4725,       524,
   60.5028,       508,
   60.5332,       479,
   60.5635,       465,
   60.5938,       499,
   60.6242,       474,
   60.6545,       532,
   60.6848,       554,
   60.7151,       504,
   60.7455,       525,
   60.7758,       470,
   60.8061,       509,
   60.8365,       529,
   60.8668,       551,
   60.8971,       531,
   60.9274,       519,
   60.9578,       568,
   60.9881,       560,
   61.0184,       526,
   61.0487,       539,
   61.0791,       575,
   61.1094,       514,
   61.1397,       520,
   61.1701,       560,
   61.2004,       583,
   61.2307,       535,
    61.261,       541,
   61.2914,       531,
   61.3217,       519,
    61.352,       585,
   61.3824,       610,
   61.4127,       629,
    61.443,       625,
   61.4733,       692,
   61.5037,       691,
    61.534,       830,
   61.5643,       891,
   61.5947,      1058,
    61.625,      1274,
   61.6553,      1267,
   61.6856,      1107,
    61.716,      1061,
   61.7463,      1082,
   61.7766,      1000,
    61.807,       961,
   61.8373,       851,
   61.8676,       756,
   61.8979,       672,
   61.9283,       634,
   61.9586,       625,
   61.9889,       639,
   62.0192,       635,
   62.0496,       611,
   62.0799,       608,
   62.1102,       610,
   62.1406,       641,
   62.1709,       679,
   62.2012,       761,
   62.2315,       807,
   62.2619,       862,
   62.2922,       852,
   62.3225,       921,
   62.3529,       904,
   62.3832,       818,
   62.4135,       805,
   62.4438,       762,
   62.4742,       685,
   62.5045,       668,
   62.5348,       615,
   62.5652,       587,
   62.5955,       573,
   62.6258,       546,
   62.6561,       478,
   62.6865,       472,
   62.7168,       505,
   62.7471,       505,
   62.7775,       531,
   62.8078,       484,
   62.8381,       505,
   62.8684,       461,
   62.8988,       462,
   62.9291,       527,
   62.9594,       487,
   62.9898,       515,
   63.0201,       475,
   63.0504,       497,
   63.0807,       446,
   63.1111,       479,
   63.1414,       465,
   63.1717,       468,
    63.202,       486,
   63.2324,       430,
   63.2627,       468,
    63.293,       487,
   63.3234,       483,
   63.3537,       503,
    63.384,       452,
   63.4143,       468,
   63.4447,       479,
    63.475,       476,
   63.5053,       526,
   63.5357,       512,
    63.566,       491,
   63.5963,       471,
   63.6266,       478,
    63.657,       500,
   63.6873,       478,
   63.7176,       473,
    63.748,       474,
   63.7783,       420,
   63.8086,       451,
   63.8389,       477,
   63.8693,       452,
   63.8996,       448,
   63.9299,       437,
   63.9603,       438,
   63.9906,       418,
   64.0209,       497,
   64.0512,       444,
   64.0816,       461,
   64.1119,       433,
   64.1422,       461,
   64.1725,       453,
   64.2029,       463,
   64.2332,       449,
   64.2635,       448,
   64.2939,       483,
   64.3242,       425,
   64.3545,       420,
   64.3848,       435,
   64.4152,       416,
   64.4455,       486,
   64.4758,       438,
   64.5062,       434,
   64.5365,       433,
   64.5668,       433,
   64.5971,       446,
   64.6275,       442,
   64.6578,       454,
   64.6881,       461,
   64.7185,       444,
   64.7488,       445,
   64.7791,       462,
   64.8094,       467,
   64.8398,       484,
   64.8701,       480,
   64.9004,       461,
   64.9308,       456,
   64.9611,       498,
   64.9914,       467,
   65.0217,       454,
   65.0521,       416,
   65.0824,       441,
   65.1127,       471,
    65.143,       476,
   65.1734,       421,
   65.2037,       482,
    65.234,       448,
   65.2644,       438,
   65.2947,       455,
    65.325,       482,
   65.3553,       480,
   65.3857,       425,
    65.416,       428,
   65.4463,       424,
   65.4767,       438,
    65.507,       443,
   65.5373,       467,
   65.5676,       412,
    65.598,       432,
   65.6283,       439,
   65.6586,       429,
    65.689,       443,
   65.7193,       441,
   65.7496,       418,
   65.7799,       465,
   65.8103,       448,
   65.8406,       458,
   65.8709,       450,
   65.9013,       475,
   65.9316,       515,
   65.9619,       477,
   65.9922,       428,
   66.0226,       453,
   66.0529,       481,
   66.0832,       436,
   66.1135,       456,
   66.1439,       504,
   66.1742,       453,
   66.2045,       508,
   66.2349,       465,
   66.2652,       443,
   66.2955,       469,
   66.3258,       470,
   66.3562,       485,
   66.3865,       469,
   66.4168,       477,
   66.4472,       463,
   66.4775,       473,
   66.5078,       409,
   66.5381,       438,
   66.5685,       450,
   66.5988,       478,
   66.6291,       481,
   66.6595,       451,
   66.6898,       490,
   66.7201,       427,
   66.7504,       488,
   66.7808,       503,
   66.8111,       475,
   66.8414,       501,
   66.8718,       489,
   66.9021,       551,
   66.9324,       521,
   66.9627,       506,
   66.9931,       522,
   67.0234,       515,
   67.0537,       495,
    67.084,       496,
   67.1144,       520,
   67.1447,       509,
    67.175,       506,
   67.2054,       511,
   67.2357,       499,
    67.266,       548,
   67.2963,       530,
   67.3267,       551,
    67.357,       549,
   67.3873,       528,
   67.4177,       614,
    67.448,       595,
   67.4783,       581,
   67.5086,       587,
    67.539,       608,
   67.5693,       625,
   67.5996,       577,
     67.63,       599,
   67.6603,       619,
   67.6906,       652,
   67.7209,       696,
   67.7513,       666,
   67.7816,       669,
   67.8119,       687,
   67.8423,       695,
   67.8726,       642,
   67.9029,       650,
   67.9332,       601,
   67.9636,       558,
   67.9939,       580,
   68.0242,       575,
   68.0546,       587,
   68.0849,       554,
   68.1152,       522,
   68.1455,       564,
   68.1759,       604,
   68.2062,       546,
   68.2365,       643,
   68.2668,       601,
   68.2972,       699,
   68.3275,       648,
   68.3578,       673,
   68.3882,       742,
   68.4185,       806,
   68.4488,       771,
   68.4791,       855,
   68.5095,       799,
   68.5398,       839,
   68.5701,       974,
   68.6005,       883,
   68.6308,       883,
   68.6611,       965,
   68.6914,       892,
   68.7218,       897,
   68.7521,       892,
   68.7824,       872,
   68.8128,       857,
   68.8431,       860,
   68.8734,       818,
   68.9037,       758,
   68.9341,       770,
   68.9644,       753,
   68.9947,       694,
   69.0251,       725,
   69.0554,       660,
   69.0857,       638,
    69.116,       673,
   69.1464,       610,
   69.1767,       658,
    69.207,       605,
   69.2373,       593,
   69.2677,       561,
    69.298,       588,
   69.3283,       524,
   69.3587,       502,
    69.389,       579,
   69.4193,       596,
   69.4496,       568,
     69.48,       573,
   69.5103,       551,
   69.5406,       512,
    69.571,       533,
   69.6013,       549,
   69.6316,       514,
   69.6619,       477,
   69.6923,       491,
   69.7226,       537,
   69.7529,       537,
   69.7833,       505,
   69.8136,       546,
   69.8439,       551,
   69.8742,       569,
   69.9046,       595,
   69.9349,       566,
   69.9652,       583,
   69.9956,       575,
