;RAW4.00
[RawHeader]
Date=04/22/2019
EstimatedTotalTime=2311.14
FurtherDQLReading=0
HardwareIndicator=65519
MeasuredTotalTime=2311.14
MeasurementFlag=1
NumberOfMeasuredRanges=1
NumberOfRanges=1
Time=19:08:11

[VarInfo]
Type=USER
Flags=0
Value=Bruker Service

[VarInfo]
Type=SAMPLEID
Flags=0
Value=Commander Sample ID

[VarInfo]
Type=COMMENT
Flags=0
Value=

[VarInfo]
Type=UTF
Flags=0
Value=

[VarInfo]
Type=CREATOR
Flags=0
Value=BrmlToV4Converter

[VarInfo]
Type=CREATOR_VERSION
Flags=0
Value=7.3.0.0

[HardwareConfiguration]
AbsorptionFactor=9999
ActivateAbsorber=0
Alpha1=1.78897
Alpha2=1.79285
AlphaAverage=1.79026
AlphaRatio=0.5
Analyzer=0
Anode=Co
AntiScatteringSlit=9999
BeamOpticsFlags=0
Beta=1.62079
BetaRelativeIntensity=0
DeactivateAbsorber=0
DetectorSlit=9999
DivergenceSlit=1
GoniometerControl=0
GoniometerDiameter=282
GoniometerModel=256
GoniometerStage=7
Monochromator=0
NearSampleSlit=9999
PrimarySollerSlit=9999
SampleChanger=0
SecondSollerSlit=9999
SynchronousAxis=0
ThinFilmAttachment=9999
WaveUnit=A

[RangeHeader]
ActuallyUsedLambda=1.79026
AdditionalDetectorMask=257
DataRecordLength=4
DelayTime=0
DisplayPlaneNumber=0
EstimatedScanTime=2311
ExtraParametersMask=0
GeneratorCurrent=10
GeneratorVoltage=30
Increment=0.0303281
Increment3=0
NumberOfCompletedData=2144
NumberOfCounts=1
NumberOfDetectors=0
NumberOfDrives=2
NumberOfEncoderDrives=0
NumberOfMeasuredData=2144
NumberOfVaryingParameters=0
RangeStartTime=0
RotationSpeed=1
ScanMode=1
ScanType=Locked Coupled
SimulatedMeasConditions=0
SlitChangerIn=0
SmootingWidth=0
Start=5.00234
Steps=2144
SynchronousRotation=0
Time=165

[VarInfo]
Type=PSD_DISCRIM
Flags=0
Value=0.11;0.25

[PSD]
ActualTwoTheta=9999
FirstUsedChannel=0
FixedPSD=0
PSDOpening=5.00414
PSDType=5

[Drive]
DriveFlags=1
DriveName=2Theta
DriveNumber=2
DriveOffset=0
OffsetIndex=0
OscillationAmplitude=0
OscillationSpeed=0
StartPosition=5.00234

[Drive]
DriveFlags=1
DriveName=Theta
DriveNumber=1
DriveOffset=0
OffsetIndex=0
OscillationAmplitude=0
OscillationSpeed=0
StartPosition=2.50117

[Data]
     Angle,       PSD,
   5.00234,      9529,
   5.03267,      9398,
     5.063,      9425,
   5.09333,      9324,
   5.12365,      9005,
   5.15398,      8972,
   5.18431,      8744,
   5.21464,      8870,
   5.24497,      8744,
   5.27529,      8528,
   5.30562,      8431,
   5.33595,      8227,
   5.36628,      7931,
   5.39661,      7862,
   5.42694,      7603,
   5.45726,      7386,
   5.48759,      7076,
   5.51792,      6891,
   5.54825,      6888,
   5.57858,      6749,
    5.6089,      6725,
   5.63923,      6591,
   5.66956,      6332,
   5.69989,      6430,
   5.73022,      6285,
   5.76055,      6147,
   5.79087,      6363,
    5.8212,      6120,
   5.85153,      5994,
   5.88186,      6050,
   5.91219,      5859,
   5.94251,      5768,
   5.97284,      5721,
   6.00317,      5580,
    6.0335,      5651,
   6.06383,      5555,
   6.09415,      5422,
   6.12448,      5424,
   6.15481,      5224,
   6.18514,      5377,
   6.21547,      5276,
    6.2458,      5058,
   6.27612,      5073,
   6.30645,      5107,
   6.33678,      4953,
   6.36711,      4865,
   6.39744,      4981,
   6.42776,      4829,
   6.45809,      4841,
   6.48842,      4567,
   6.51875,      4536,
   6.54908,      4436,
    6.5794,      4552,
   6.60973,      4337,
   6.64006,      4335,
   6.67039,      4294,
   6.70072,      4305,
   6.73105,      4127,
   6.76137,      4120,
    6.7917,      4187,
   6.82203,      4031,
   6.85236,      3979,
   6.88269,      4002,
   6.91301,      3875,
   6.94334,      3850,
   6.97367,      3843,
     7.004,      3811,
   7.03433,      3677,
   7.06466,      3849,
   7.09498,      3688,
   7.12531,      3758,
   7.15564,      3686,
   7.18597,      3464,
    7.2163,      3558,
   7.24662,      3492,
   7.27695,      3459,
   7.30728,      3319,
   7.33761,      3419,
   7.36794,      3320,
   7.39826,      3365,
   7.42859,      3295,
   7.45892,      3172,
   7.48925,      3290,
   7.51958,      3223,
   7.54991,      3103,
   7.58023,      3093,
   7.61056,      3066,
   7.64089,      3074,
   7.67122,      3080,
   7.70155,      3024,
   7.73187,      3109,
    7.7622,      2916,
   7.79253,      2958,
   7.82286,      2862,
   7.85319,      2842,
   7.88352,      2841,
   7.91384,      2881,
   7.94417,      2752,
    7.9745,      2629,
   8.00483,      2755,
   8.03516,      2686,
   8.06548,      2683,
   8.09581,      2616,
   8.12614,      2736,
   8.15647,      2570,
    8.1868,      2625,
   8.21712,      2623,
   8.24745,      2495,
   8.27778,      2443,
   8.30811,      2591,
   8.33844,      2375,
   8.36877,      2361,
   8.39909,      2456,
   8.42942,      2468,
   8.45975,      2357,
   8.49008,      2410,
   8.52041,      2322,
   8.55073,      2372,
   8.58106,      2422,
   8.61139,      2300,
   8.64172,      2352,
   8.67205,      2309,
   8.70237,      2190,
    8.7327,      2210,
   8.76303,      2204,
   8.79336,      2122,
   8.82369,      2210,
   8.85402,      2182,
   8.88434,      2149,
   8.91467,      2236,
     8.945,      2153,
   8.97533,      2057,
   9.00566,      2141,
   9.03598,      1997,
   9.06631,      2037,
   9.09664,      2171,
   9.12697,      1952,
    9.1573,      2014,
   9.18763,      1992,
   9.21795,      1991,
   9.24828,      1939,
   9.27861,      2049,
   9.30894,      1985,
   9.33927,      1956,
   9.36959,      1987,
   9.39992,      1896,
   9.43025,      1913,
   9.46058,      1938,
   9.49091,      1804,
   9.52123,      1854,
   9.55156,      1916,
   9.58189,      1818,
   9.61222,      1875,
   9.64255,      1892,
   9.67288,      1841,
    9.7032,      2005,
   9.73353,      1858,
   9.76386,      1914,
   9.79419,      1873,
   9.82452,      1815,
   9.85484,      1872,
   9.88517,      1819,
    9.9155,      1783,
   9.94583,      1796,
   9.97616,      1817,
   10.0065,      1810,
   10.0368,      1852,
   10.0671,      1828,
   10.0975,      1789,
   10.1278,      1756,
   10.1581,      1697,
   10.1885,      1798,
   10.2188,      1831,
   10.2491,      1712,
   10.2794,      1766,
   10.3098,      1738,
   10.3401,      1704,
   10.3704,      1763,
   10.4008,      1711,
   10.4311,      1782,
   10.4614,      1689,
   10.4917,      1661,
   10.5221,      1619,
   10.5524,      1743,
   10.5827,      1699,
    10.613,      1704,
   10.6434,      1630,
   10.6737,      1595,
    10.704,      1660,
   10.7344,      1583,
   10.7647,      1655,
    10.795,      1600,
   10.8253,      1623,
   10.8557,      1601,
    10.886,      1665,
   10.9163,      1566,
   10.9467,      1557,
    10.977,      1657,
   11.0073,      1615,
   11.0376,      1629,
    11.068,      1579,
   11.0983,      1439,
   11.1286,      1505,
    11.159,      1573,
   11.1893,      1497,
   11.2196,      1646,
   11.2499,      1522,
   11.2803,      1499,
   11.3106,      1567,
   11.3409,      1561,
   11.3713,      1530,
   11.4016,      1579,
   11.4319,      1629,
   11.4622,      1550,
   11.4926,      1507,
   11.5229,      1489,
   11.5532,      1529,
   11.5835,      1540,
   11.6139,      1528,
   11.6442,      1570,
   11.6745,      1498,
   11.7049,      1526,
   11.7352,      1505,
   11.7655,      1490,
   11.7958,      1543,
   11.8262,      1448,
   11.8565,      1428,
   11.8868,      1531,
   11.9172,      1528,
   11.9475,      1515,
   11.9778,      1439,
   12.0081,      1527,
   12.0385,      1445,
   12.0688,      1476,
   12.0991,      1457,
   12.1295,      1500,
   12.1598,      1467,
   12.1901,      1410,
   12.2204,      1439,
   12.2508,      1422,
   12.2811,      1462,
   12.3114,      1368,
   12.3418,      1464,
   12.3721,      1394,
   12.4024,      1454,
   12.4327,      1404,
   12.4631,      1448,
   12.4934,      1441,
   12.5237,      1448,
    12.554,      1348,
   12.5844,      1415,
   12.6147,      1396,
    12.645,      1486,
   12.6754,      1371,
   12.7057,      1384,
    12.736,      1418,
   12.7663,      1408,
   12.7967,      1365,
    12.827,      1414,
   12.8573,      1443,
   12.8877,      1342,
    12.918,      1384,
   12.9483,      1419,
   12.9786,      1371,
    13.009,      1404,
   13.0393,      1422,
   13.0696,      1360,
      13.1,      1398,
   13.1303,      1474,
   13.1606,      1433,
   13.1909,      1350,
   13.2213,      1387,
   13.2516,      1363,
   13.2819,      1432,
   13.3123,      1386,
   13.3426,      1469,
   13.3729,      1450,
   13.4032,      1524,
   13.4336,      1647,
   13.4639,      1811,
   13.4942,      1958,
   13.5245,      1978,
   13.5549,      1703,
   13.5852,      1488,
   13.6155,      1449,
   13.6459,      1414,
   13.6762,      1386,
   13.7065,      1358,
   13.7368,      1334,
   13.7672,      1327,
   13.7975,      1366,
   13.8278,      1331,
   13.8582,      1348,
   13.8885,      1333,
   13.9188,      1366,
   13.9491,      1318,
   13.9795,      1372,
   14.0098,      1399,
   14.0401,      1399,
   14.0705,      1329,
   14.1008,      1345,
   14.1311,      1362,
   14.1614,      1357,
   14.1918,      1403,
   14.2221,      1371,
   14.2524,      1354,
   14.2828,      1339,
   14.3131,      1329,
   14.3434,      1334,
   14.3737,      1407,
   14.4041,      1377,
   14.4344,      1309,
   14.4647,      1340,
   14.4951,      1354,
   14.5254,      1313,
   14.5557,      1269,
    14.586,      1340,
   14.6164,      1244,
   14.6467,      1223,
    14.677,      1265,
   14.7073,      1334,
   14.7377,      1248,
    14.768,      1197,
   14.7983,      1316,
   14.8287,      1341,
    14.859,      1265,
   14.8893,      1269,
   14.9196,      1355,
     14.95,      1224,
   14.9803,      1328,
   15.0106,      1251,
    15.041,      1285,
   15.0713,      1251,
   15.1016,      1333,
   15.1319,      1365,
   15.1623,      1240,
   15.1926,      1259,
   15.2229,      1282,
   15.2533,      1169,
   15.2836,      1275,
   15.3139,      1251,
   15.3442,      1280,
   15.3746,      1207,
   15.4049,      1270,
   15.4352,      1223,
   15.4656,      1307,
   15.4959,      1247,
   15.5262,      1228,
   15.5565,      1213,
   15.5869,      1157,
   15.6172,      1237,
   15.6475,      1181,
   15.6778,      1175,
   15.7082,      1213,
   15.7385,      1127,
   15.7688,      1129,
   15.7992,      1208,
   15.8295,      1216,
   15.8598,      1201,
   15.8901,      1257,
   15.9205,      1191,
   15.9508,      1155,
   15.9811,      1252,
   16.0115,      1241,
   16.0418,      1241,
   16.0721,      1208,
   16.1024,      1255,
   16.1328,      1234,
   16.1631,      1264,
   16.1934,      1203,
   16.2238,      1250,
   16.2541,      1269,
   16.2844,      1201,
   16.3147,      1291,
   16.3451,      1246,
   16.3754,      1126,
   16.4057,      1181,
   16.4361,      1223,
   16.4664,      1093,
   16.4967,      1254,
    16.527,      1199,
   16.5574,      1315,
   16.5877,      1507,
    16.618,      1673,
   16.6483,      1702,
   16.6787,      1497,
    16.709,      1366,
   16.7393,      1172,
   16.7697,      1194,
      16.8,      1160,
   16.8303,      1212,
   16.8606,      1130,
    16.891,      1200,
   16.9213,      1140,
   16.9516,      1224,
    16.982,      1191,
   17.0123,      1187,
   17.0426,      1164,
   17.0729,      1136,
   17.1033,      1128,
   17.1336,      1171,
   17.1639,      1116,
   17.1943,      1206,
   17.2246,      1140,
   17.2549,      1139,
   17.2852,      1164,
   17.3156,      1128,
   17.3459,      1110,
   17.3762,      1173,
   17.4066,      1096,
   17.4369,      1128,
   17.4672,      1170,
   17.4975,      1147,
   17.5279,      1115,
   17.5582,      1152,
   17.5885,      1127,
   17.6188,      1128,
   17.6492,      1119,
   17.6795,      1082,
   17.7098,      1088,
   17.7402,      1180,
   17.7705,      1091,
   17.8008,      1137,
   17.8311,      1138,
   17.8615,      1111,
   17.8918,      1088,
   17.9221,      1083,
   17.9525,      1112,
   17.9828,      1144,
   18.0131,      1142,
   18.0434,      1145,
   18.0738,      1134,
   18.1041,      1076,
   18.1344,      1060,
   18.1648,      1126,
   18.1951,      1037,
   18.2254,      1112,
   18.2557,      1119,
   18.2861,      1136,
   18.3164,      1089,
   18.3467,      1163,
   18.3771,      1116,
   18.4074,      1044,
   18.4377,      1081,
    18.468,      1127,
   18.4984,      1129,
   18.5287,      1117,
    18.559,      1103,
   18.5893,      1083,
   18.6197,      1091,
     18.65,      1115,
   18.6803,      1037,
   18.7107,      1146,
    18.741,      1118,
   18.7713,      1075,
   18.8016,      1093,
    18.832,      1056,
   18.8623,      1039,
   18.8926,      1072,
    18.923,      1107,
   18.9533,      1012,
   18.9836,      1005,
   19.0139,      1047,
   19.0443,      1098,
   19.0746,      1086,
   19.1049,      1061,
   19.1353,      1011,
   19.1656,      1054,
   19.1959,      1121,
   19.2262,      1099,
   19.2566,      1034,
   19.2869,      1039,
   19.3172,      1018,
   19.3476,      1096,
   19.3779,      1144,
   19.4082,      1041,
   19.4385,      1120,
   19.4689,      1026,
   19.4992,      1079,
   19.5295,      1071,
   19.5599,      1074,
   19.5902,      1097,
   19.6205,      1038,
   19.6508,      1033,
   19.6812,      1070,
   19.7115,      1033,
   19.7418,      1024,
   19.7721,      1077,
   19.8025,      1064,
   19.8328,      1050,
   19.8631,       994,
   19.8935,       982,
   19.9238,      1020,
   19.9541,      1049,
   19.9844,       999,
   20.0148,      1023,
   20.0451,      1074,
   20.0754,      1086,
   20.1058,      1067,
   20.1361,      1030,
   20.1664,      1094,
   20.1967,      1051,
   20.2271,      1044,
   20.2574,      1058,
   20.2877,      1089,
   20.3181,      1056,
   20.3484,      1036,
   20.3787,      1052,
    20.409,      1074,
   20.4394,      1078,
   20.4697,      1082,
      20.5,      1044,
   20.5304,      1049,
   20.5607,      1056,
    20.591,      1105,
   20.6213,      1088,
   20.6517,      1054,
    20.682,      1126,
   20.7123,      1036,
   20.7426,      1044,
    20.773,      1096,
   20.8033,      1071,
   20.8336,      1024,
    20.864,      1112,
   20.8943,      1052,
   20.9246,      1090,
   20.9549,      1003,
   20.9853,      1097,
   21.0156,      1073,
   21.0459,      1081,
   21.0763,      1036,
   21.1066,      1104,
   21.1369,      1041,
   21.1672,      1045,
   21.1976,      1090,
   21.2279,      1036,
   21.2582,      1045,
   21.2886,      1031,
   21.3189,      1063,
   21.3492,      1042,
   21.3795,      1088,
   21.4099,      1020,
   21.4402,      1063,
   21.4705,      1040,
   21.5009,       994,
   21.5312,      1092,
   21.5615,      1063,
   21.5918,      1032,
   21.6222,      1094,
   21.6525,      1030,
   21.6828,      1055,
   21.7131,       975,
   21.7435,      1078,
   21.7738,      1019,
   21.8041,      1077,
   21.8345,      1046,
   21.8648,      1078,
   21.8951,       969,
   21.9254,      1031,
   21.9558,      1017,
   21.9861,       988,
   22.0164,      1044,
   22.0468,      1027,
   22.0771,      1032,
   22.1074,       964,
   22.1377,      1090,
   22.1681,      1115,
   22.1984,      1064,
   22.2287,      1068,
   22.2591,      1027,
   22.2894,      1043,
   22.3197,      1048,
     22.35,      1029,
   22.3804,      1020,
   22.4107,      1078,
    22.441,      1151,
   22.4714,      1048,
   22.5017,      1019,
    22.532,      1111,
   22.5623,      1168,
   22.5927,      1045,
    22.623,      1147,
   22.6533,      1149,
   22.6836,      1181,
    22.714,      1170,
   22.7443,      1252,
   22.7746,      1282,
    22.805,      1367,
   22.8353,      1291,
   22.8656,      1252,
   22.8959,      1391,
   22.9263,      1405,
   22.9566,      1450,
   22.9869,      1310,
   23.0173,      1469,
   23.0476,      1355,
   23.0779,      1409,
   23.1082,      1460,
   23.1386,      1376,
   23.1689,      1450,
   23.1992,      1340,
   23.2296,      1365,
   23.2599,      1375,
   23.2902,      1312,
   23.3205,      1372,
   23.3509,      1389,
   23.3812,      1361,
   23.4115,      1349,
   23.4419,      1320,
   23.4722,      1185,
   23.5025,      1230,
   23.5328,      1196,
   23.5632,      1235,
   23.5935,      1215,
   23.6238,      1122,
   23.6541,      1180,
   23.6845,      1172,
   23.7148,      1202,
   23.7451,      1120,
   23.7755,      1217,
   23.8058,      1184,
   23.8361,      1214,
   23.8664,      1190,
   23.8968,      1215,
   23.9271,      1262,
   23.9574,      1227,
   23.9878,      1301,
   24.0181,      1366,
   24.0484,      1401,
   24.0787,      1682,
   24.1091,      1775,
   24.1394,      1823,
   24.1697,      1640,
   24.2001,      1568,
   24.2304,      1508,
   24.2607,      1437,
    24.291,      1431,
   24.3214,      1382,
   24.3517,      1247,
    24.382,      1235,
   24.4124,      1212,
   24.4427,      1169,
    24.473,      1206,
   24.5033,      1234,
   24.5337,      1103,
    24.564,      1143,
   24.5943,      1098,
   24.6246,      1128,
    24.655,      1062,
   24.6853,      1078,
   24.7156,      1100,
    24.746,      1063,
   24.7763,      1009,
   24.8066,      1061,
   24.8369,      1075,
   24.8673,      1016,
   24.8976,      1016,
   24.9279,      1070,
   24.9583,      1093,
   24.9886,       997,
   25.0189,      1034,
   25.0492,       968,
   25.0796,      1036,
   25.1099,      1051,
   25.1402,       996,
   25.1706,      1021,
   25.2009,      1038,
   25.2312,       967,
   25.2615,       988,
   25.2919,       991,
   25.3222,       981,
   25.3525,      1007,
   25.3829,      1056,
   25.4132,      1017,
   25.4435,       998,
   25.4738,       943,
   25.5042,       984,
   25.5345,      1041,
   25.5648,      1102,
   25.5952,      1131,
   25.6255,      1158,
   25.6558,      1165,
   25.6861,      1084,
   25.7165,      1063,
   25.7468,      1031,
   25.7771,       940,
   25.8074,      1006,
   25.8378,      1101,
   25.8681,      1034,
   25.8984,      1000,
   25.9288,       956,
   25.9591,      1079,
   25.9894,      1010,
   26.0197,       966,
   26.0501,      1048,
   26.0804,       966,
   26.1107,       980,
   26.1411,      1017,
   26.1714,      1001,
   26.2017,      1008,
    26.232,      1005,
   26.2624,       973,
   26.2927,      1020,
    26.323,      1017,
   26.3534,       953,
   26.3837,       995,
    26.414,       993,
   26.4443,      1096,
   26.4747,      1029,
    26.505,      1041,
   26.5353,       990,
   26.5657,      1042,
    26.596,      1036,
   26.6263,      1053,
   26.6566,      1038,
    26.687,      1089,
   26.7173,      1119,
   26.7476,      1194,
   26.7779,      1402,
   26.8083,      1744,
   26.8386,      2150,
   26.8689,      2131,
   26.8993,      1974,
   26.9296,      1706,
   26.9599,      1579,
   26.9902,      1464,
   27.0206,      1514,
   27.0509,      1501,
   27.0812,      1591,
   27.1116,      1801,
   27.1419,      1719,
   27.1722,      1789,
   27.2025,      1685,
   27.2329,      1490,
   27.2632,      1487,
   27.2935,      1409,
   27.3239,      1286,
   27.3542,      1298,
   27.3845,      1190,
   27.4148,      1275,
   27.4452,      1107,
   27.4755,      1127,
   27.5058,      1142,
   27.5362,      1153,
   27.5665,      1080,
   27.5968,      1120,
   27.6271,      1096,
   27.6575,      1071,
   27.6878,      1054,
   27.7181,       997,
   27.7484,      1017,
   27.7788,      1066,
   27.8091,      1018,
   27.8394,       976,
   27.8698,      1037,
   27.9001,      1055,
   27.9304,       983,
   27.9607,      1032,
   27.9911,      1075,
   28.0214,       990,
   28.0517,       987,
   28.0821,      1041,
   28.1124,      1058,
   28.1427,      1022,
    28.173,      1028,
   28.2034,       977,
   28.2337,       995,
    28.264,       989,
   28.2944,       976,
   28.3247,       968,
    28.355,       954,
   28.3853,      1020,
   28.4157,       988,
    28.446,       950,
   28.4763,      1006,
   28.5067,       939,
    28.537,       901,
   28.5673,       940,
   28.5976,       987,
    28.628,       994,
   28.6583,      1017,
   28.6886,      1004,
   28.7189,       922,
   28.7493,       963,
   28.7796,       997,
   28.8099,       918,
   28.8403,       989,
   28.8706,       969,
   28.9009,       995,
   28.9312,       965,
   28.9616,      1029,
   28.9919,       985,
   29.0222,      1000,
   29.0526,      1027,
   29.0829,       903,
   29.1132,       999,
   29.1435,       983,
   29.1739,       937,
   29.2042,       983,
   29.2345,      1027,
   29.2649,       958,
   29.2952,      1027,
   29.3255,      1071,
   29.3558,      1015,
   29.3862,      1001,
   29.4165,       990,
   29.4468,      1014,
   29.4772,      1015,
   29.5075,      1024,
   29.5378,      1044,
   29.5681,       965,
   29.5985,       974,
   29.6288,       986,
   29.6591,       974,
   29.6894,       975,
   29.7198,       945,
   29.7501,       943,
   29.7804,       973,
   29.8108,       958,
   29.8411,      1006,
   29.8714,      1018,
   29.9017,       983,
   29.9321,       966,
   29.9624,       991,
   29.9927,      1076,
   30.0231,       992,
   30.0534,      1007,
   30.0837,      1076,
    30.114,      1077,
   30.1444,      1106,
   30.1747,      1062,
    30.205,      1134,
   30.2354,      1123,
   30.2657,      1193,
    30.296,      1269,
   30.3263,      1402,
   30.3567,      1573,
    30.387,      1788,
   30.4173,      2314,
   30.4477,      3258,
    30.478,      3971,
   30.5083,      4252,
   30.5386,      3891,
    30.569,      3250,
   30.5993,      2379,
   30.6296,      1888,
     30.66,      1580,
   30.6903,      1403,
   30.7206,      1307,
   30.7509,      1176,
   30.7813,      1226,
   30.8116,      1144,
   30.8419,      1201,
   30.8722,      1204,
   30.9026,      1329,
   30.9329,      1491,
   30.9632,      1700,
   30.9936,      2154,
   31.0239,      2221,
   31.0542,      2002,
   31.0845,      1798,
   31.1149,      1504,
   31.1452,      1332,
   31.1755,      1169,
   31.2059,      1331,
   31.2362,      1211,
   31.2665,      1261,
   31.2968,      1256,
   31.3272,      1344,
   31.3575,      1214,
   31.3878,      1244,
   31.4182,      1278,
   31.4485,      1343,
   31.4788,      1310,
   31.5091,      1487,
   31.5395,      1474,
   31.5698,      1674,
   31.6001,      1895,
   31.6305,      2260,
   31.6608,      2528,
   31.6911,      2464,
   31.7214,      2177,
   31.7518,      1926,
   31.7821,      1618,
   31.8124,      1425,
   31.8427,      1331,
   31.8731,      1188,
   31.9034,      1136,
   31.9337,      1094,
   31.9641,      1221,
   31.9944,      1075,
   32.0247,      1076,
    32.055,      1065,
   32.0854,      1043,
   32.1157,      1104,
    32.146,      1056,
   32.1764,       965,
   32.2067,       987,
    32.237,       988,
   32.2673,       985,
   32.2977,       989,
    32.328,       928,
   32.3583,       944,
   32.3887,      1026,
    32.419,       979,
   32.4493,      1014,
   32.4796,      1003,
     32.51,      1002,
   32.5403,      1076,
   32.5706,      1007,
    32.601,       963,
   32.6313,       959,
   32.6616,       959,
   32.6919,       991,
   32.7223,       973,
   32.7526,       988,
   32.7829,      1028,
   32.8132,      1012,
   32.8436,       990,
   32.8739,      1006,
   32.9042,       961,
   32.9346,       966,
   32.9649,       930,
   32.9952,       946,
   33.0255,       978,
   33.0559,       934,
   33.0862,       936,
   33.1165,       913,
   33.1469,       896,
   33.1772,       967,
   33.2075,       861,
   33.2378,       942,
   33.2682,       937,
   33.2985,       941,
   33.3288,       952,
   33.3592,       942,
   33.3895,       933,
   33.4198,       937,
   33.4501,       962,
   33.4805,      1021,
   33.5108,       959,
   33.5411,       921,
   33.5715,       971,
   33.6018,      1049,
   33.6321,      1049,
   33.6624,      1066,
   33.6928,      1097,
   33.7231,      1052,
   33.7534,      1117,
   33.7837,      1204,
   33.8141,      1210,
   33.8444,      1422,
   33.8747,      1525,
   33.9051,      1625,
   33.9354,      1634,
   33.9657,      1616,
    33.996,      1581,
   34.0264,      1586,
   34.0567,      1611,
    34.087,      1681,
   34.1174,      1933,
   34.1477,      2220,
    34.178,      2936,
   34.2083,      4209,
   34.2387,      6586,
    34.269,      9338,
   34.2993,     10536,
   34.3297,      9562,
     34.36,      8441,
   34.3903,      7123,
   34.4206,      5585,
    34.451,      4968,
   34.4813,      4948,
   34.5116,      5362,
    34.542,      5895,
   34.5723,      6552,
   34.6026,      6983,
   34.6329,      7394,
   34.6633,      7393,
   34.6936,      7344,
   34.7239,      7069,
   34.7542,      6693,
   34.7846,      6078,
   34.8149,      5549,
   34.8452,      5133,
   34.8756,      4413,
   34.9059,      4040,
   34.9362,      3508,
   34.9665,      3188,
   34.9969,      2982,
   35.0272,      2736,
   35.0575,      2456,
   35.0879,      2385,
   35.1182,      2193,
   35.1485,      2082,
   35.1788,      1990,
   35.2092,      1877,
   35.2395,      1811,
   35.2698,      1787,
   35.3002,      1656,
   35.3305,      1706,
   35.3608,      1566,
   35.3911,      1604,
   35.4215,      1561,
   35.4518,      1525,
   35.4821,      1510,
   35.5125,      1462,
   35.5428,      1446,
   35.5731,      1409,
   35.6034,      1368,
   35.6338,      1407,
   35.6641,      1386,
   35.6944,      1398,
   35.7248,      1379,
   35.7551,      1363,
   35.7854,      1439,
   35.8157,      1524,
   35.8461,      1816,
   35.8764,      1810,
   35.9067,      1863,
    35.937,      1904,
   35.9674,      1839,
   35.9977,      1685,
    36.028,      1619,
   36.0584,      1468,
   36.0887,      1345,
    36.119,      1271,
   36.1493,      1276,
   36.1797,      1449,
     36.21,      1478,
   36.2403,      1527,
   36.2707,      1490,
    36.301,      1450,
   36.3313,      1250,
   36.3616,      1288,
    36.392,      1200,
   36.4223,      1112,
   36.4526,      1040,
    36.483,      1041,
   36.5133,       980,
   36.5436,       999,
   36.5739,      1001,
   36.6043,      1089,
   36.6346,      1079,
   36.6649,      1147,
   36.6953,      1147,
   36.7256,      1038,
   36.7559,      1063,
   36.7862,      1016,
   36.8166,       997,
   36.8469,      1004,
   36.8772,      1010,
   36.9075,       924,
   36.9379,      1001,
   36.9682,       985,
   36.9985,       989,
   37.0289,      1033,
   37.0592,      1023,
   37.0895,      1035,
   37.1198,      1025,
   37.1502,      1092,
   37.1805,      1050,
   37.2108,       994,
   37.2412,       942,
   37.2715,       959,
   37.3018,       988,
   37.3321,       907,
   37.3625,       949,
   37.3928,       991,
   37.4231,       939,
   37.4535,       972,
   37.4838,       969,
   37.5141,      1032,
   37.5444,      1098,
   37.5748,      1183,
   37.6051,      1117,
   37.6354,      1079,
   37.6658,      1039,
   37.6961,       934,
   37.7264,       994,
   37.7567,       979,
   37.7871,       916,
   37.8174,       928,
   37.8477,       866,
    37.878,       874,
   37.9084,       939,
   37.9387,       905,
    37.969,       948,
   37.9994,       871,
   38.0297,       984,
     38.06,       901,
   38.0903,      1025,
   38.1207,      1020,
    38.151,      1079,
   38.1813,      1130,
   38.2117,      1082,
    38.242,      1072,
   38.2723,      1042,
   38.3026,      1036,
    38.333,      1054,
   38.3633,      1091,
   38.3936,      1094,
    38.424,      1037,
   38.4543,      1176,
   38.4846,      1430,
   38.5149,      1587,
   38.5453,      1929,
   38.5756,      2345,
   38.6059,      2467,
   38.6363,      2242,
   38.6666,      2124,
   38.6969,      1808,
   38.7272,      1556,
   38.7576,      1255,
   38.7879,      1127,
   38.8182,      1105,
   38.8485,      1046,
   38.8789,      1027,
   38.9092,      1070,
   38.9395,      1104,
   38.9699,      1076,
   39.0002,      1035,
   39.0305,       970,
   39.0608,       968,
   39.0912,       924,
   39.1215,       882,
   39.1518,       828,
   39.1822,       841,
   39.2125,       818,
   39.2428,       884,
   39.2731,       822,
   39.3035,       846,
   39.3338,       820,
   39.3641,       819,
   39.3945,       759,
   39.4248,       832,
   39.4551,       850,
   39.4854,       820,
   39.5158,       806,
   39.5461,       800,
   39.5764,       800,
   39.6068,       843,
   39.6371,       787,
   39.6674,       797,
   39.6977,       817,
   39.7281,       839,
   39.7584,       801,
   39.7887,       753,
    39.819,       773,
   39.8494,       806,
   39.8797,       867,
     39.91,       835,
   39.9404,       846,
   39.9707,       851,
    40.001,       913,
   40.0313,       885,
   40.0617,       846,
    40.092,       871,
   40.1223,       867,
   40.1527,       902,
    40.183,       934,
   40.2133,       898,
   40.2436,       942,
    40.274,       985,
   40.3043,       963,
   40.3346,       958,
    40.365,       979,
   40.3953,      1022,
   40.4256,       951,
   40.4559,      1001,
   40.4863,       966,
   40.5166,       963,
   40.5469,      1004,
   40.5773,       969,
   40.6076,      1008,
   40.6379,       977,
   40.6682,      1001,
   40.6986,       931,
   40.7289,       949,
   40.7592,      1023,
   40.7895,       969,
   40.8199,       937,
   40.8502,       999,
   40.8805,       997,
   40.9109,       935,
   40.9412,      1021,
   40.9715,       966,
   41.0018,       979,
   41.0322,       968,
   41.0625,       919,
   41.0928,       898,
   41.1232,       962,
   41.1535,       949,
   41.1838,       877,
   41.2141,       887,
   41.2445,       908,
   41.2748,       865,
   41.3051,       853,
   41.3355,       920,
   41.3658,       939,
   41.3961,       874,
   41.4264,       901,
   41.4568,       921,
   41.4871,       890,
   41.5174,       917,
   41.5478,       871,
   41.5781,       982,
   41.6084,       976,
   41.6387,       970,
   41.6691,      1014,
   41.6994,       948,
   41.7297,       938,
   41.7601,       983,
   41.7904,       991,
   41.8207,      1012,
    41.851,      1032,
   41.8814,      1173,
   41.9117,      1307,
    41.942,      1392,
   41.9723,      1689,
   42.0027,      2095,
    42.033,      2504,
   42.0633,      2700,
   42.0937,      2868,
    42.124,      2685,
   42.1543,      2579,
   42.1846,      2311,
    42.215,      2171,
   42.2453,      2094,
   42.2756,      1823,
    42.306,      1804,
   42.3363,      1742,
   42.3666,      1668,
   42.3969,      1780,
   42.4273,      1795,
   42.4576,      1730,
   42.4879,      1701,
   42.5183,      1641,
   42.5486,      1711,
   42.5789,      1621,
   42.6092,      1600,
   42.6396,      1594,
   42.6699,      1491,
   42.7002,      1412,
   42.7306,      1321,
   42.7609,      1255,
   42.7912,      1237,
   42.8215,      1146,
   42.8519,      1186,
   42.8822,      1029,
   42.9125,      1007,
   42.9428,      1076,
   42.9732,      1007,
   43.0035,       973,
   43.0338,       949,
   43.0642,      1059,
   43.0945,       989,
   43.1248,       945,
   43.1551,       955,
   43.1855,      1016,
   43.2158,       995,
   43.2461,       994,
   43.2765,      1004,
   43.3068,      1092,
   43.3371,       995,
   43.3674,      1076,
   43.3978,      1089,
   43.4281,      1114,
   43.4584,      1195,
   43.4888,      1209,
   43.5191,      1207,
   43.5494,      1172,
   43.5797,      1213,
   43.6101,      1217,
   43.6404,      1101,
   43.6707,      1070,
   43.7011,      1019,
   43.7314,       971,
   43.7617,       951,
    43.792,       951,
   43.8224,       927,
   43.8527,       894,
    43.883,       929,
   43.9133,       890,
   43.9437,       955,
    43.974,       950,
   44.0043,       987,
   44.0347,      1010,
    44.065,      1047,
   44.0953,      1137,
   44.1256,      1358,
    44.156,      1631,
   44.1863,      1958,
   44.2166,      2040,
    44.247,      1949,
   44.2773,      1768,
   44.3076,      1623,
   44.3379,      1471,
   44.3683,      1249,
   44.3986,      1081,
   44.4289,       957,
   44.4593,       990,
   44.4896,       963,
   44.5199,       961,
   44.5502,       886,
   44.5806,       970,
   44.6109,       973,
   44.6412,       965,
   44.6716,       963,
   44.7019,      1033,
   44.7322,      1039,
   44.7625,      1190,
   44.7929,      1256,
   44.8232,      1383,
   44.8535,      1401,
   44.8838,      1501,
   44.9142,      1386,
   44.9445,      1378,
   44.9748,      1411,
   45.0052,      1375,
   45.0355,      1413,
   45.0658,      1404,
   45.0961,      1399,
   45.1265,      1268,
   45.1568,      1240,
   45.1871,      1110,
   45.2175,      1066,
   45.2478,       898,
   45.2781,       919,
   45.3084,       875,
   45.3388,       799,
   45.3691,       786,
   45.3994,       789,
   45.4298,       812,
   45.4601,       811,
   45.4904,       805,
   45.5207,       821,
   45.5511,       834,
   45.5814,       825,
   45.6117,       860,
   45.6421,       796,
   45.6724,       794,
   45.7027,       780,
    45.733,       840,
   45.7634,       796,
   45.7937,       885,
    45.824,       837,
   45.8543,       890,
   45.8847,       878,
    45.915,       920,
   45.9453,       929,
   45.9757,      1057,
    46.006,      1223,
   46.0363,      1414,
   46.0666,      1816,
    46.097,      2271,
   46.1273,      2449,
   46.1576,      2244,
    46.188,      2008,
   46.2183,      1974,
   46.2486,      1727,
   46.2789,      1471,
   46.3093,      1451,
   46.3396,      1251,
   46.3699,      1285,
   46.4003,      1374,
   46.4306,      1395,
   46.4609,      1532,
   46.4912,      1584,
   46.5216,      1697,
   46.5519,      1718,
   46.5822,      1781,
   46.6126,      1797,
   46.6429,      1838,
   46.6732,      1844,
   46.7035,      1712,
   46.7339,      1733,
   46.7642,      1662,
   46.7945,      1508,
   46.8249,      1449,
   46.8552,      1375,
   46.8855,      1275,
   46.9158,      1324,
   46.9462,      1268,
   46.9765,      1243,
   47.0068,      1206,
   47.0371,      1143,
   47.0675,      1148,
   47.0978,      1108,
   47.1281,      1036,
   47.1585,      1018,
   47.1888,      1009,
   47.2191,       992,
   47.2494,       955,
   47.2798,       970,
   47.3101,       950,
   47.3404,       891,
   47.3708,       881,
   47.4011,       905,
   47.4314,       939,
   47.4617,       951,
   47.4921,       914,
   47.5224,       908,
   47.5527,       955,
   47.5831,       881,
   47.6134,       884,
   47.6437,       912,
    47.674,       887,
   47.7044,       932,
   47.7347,       907,
    47.765,       900,
   47.7954,       835,
   47.8257,       861,
    47.856,       939,
   47.8863,       929,
   47.9167,       957,
    47.947,       993,
   47.9773,      1039,
   48.0076,      1003,
    48.038,      1069,
   48.0683,      1117,
   48.0986,      1164,
    48.129,      1168,
   48.1593,      1227,
   48.1896,      1083,
   48.2199,       994,
   48.2503,      1005,
   48.2806,      1000,
   48.3109,       931,
   48.3413,       902,
   48.3716,       838,
   48.4019,       819,
   48.4322,       831,
   48.4626,       805,
   48.4929,       775,
   48.5232,       750,
   48.5536,       715,
   48.5839,       812,
   48.6142,       722,
   48.6445,       773,
   48.6749,       754,
   48.7052,       755,
   48.7355,       746,
   48.7659,       743,
   48.7962,       734,
   48.8265,       743,
   48.8568,       692,
   48.8872,       694,
   48.9175,       693,
   48.9478,       686,
   48.9781,       689,
   49.0085,       698,
   49.0388,       727,
   49.0691,       685,
   49.0995,       727,
   49.1298,       705,
   49.1601,       740,
   49.1904,       750,
   49.2208,       723,
   49.2511,       731,
   49.2814,       709,
   49.3118,       727,
   49.3421,       725,
   49.3724,       717,
   49.4027,       702,
   49.4331,       714,
   49.4634,       719,
   49.4937,       761,
   49.5241,       776,
   49.5544,       735,
   49.5847,       738,
    49.615,       768,
   49.6454,       819,
   49.6757,       858,
    49.706,       786,
   49.7364,       797,
   49.7667,       794,
    49.797,       840,
   49.8273,       784,
   49.8577,       827,
    49.888,       835,
   49.9183,       803,
   49.9486,       910,
    49.979,       850,
   50.0093,       826,
   50.0396,       853,
     50.07,       916,
   50.1003,       929,
   50.1306,      1056,
   50.1609,      1152,
   50.1913,      1306,
   50.2216,      1326,
   50.2519,      1211,
   50.2823,      1192,
   50.3126,      1194,
   50.3429,      1101,
   50.3732,      1039,
   50.4036,       988,
   50.4339,      1013,
   50.4642,      1062,
   50.4946,      1176,
   50.5249,      1475,
   50.5552,      1797,
   50.5855,      2107,
   50.6159,      1991,
   50.6462,      1845,
   50.6765,      1854,
   50.7069,      1711,
   50.7372,      1544,
   50.7675,      1394,
   50.7978,      1270,
   50.8282,      1214,
   50.8585,      1156,
   50.8888,      1256,
   50.9191,      1265,
   50.9495,      1312,
   50.9798,      1348,
   51.0101,      1515,
   51.0405,      1550,
   51.0708,      1646,
   51.1011,      1651,
   51.1314,      1651,
   51.1618,      1631,
   51.1921,      1652,
   51.2224,      1682,
   51.2528,      1523,
   51.2831,      1466,
   51.3134,      1375,
   51.3437,      1379,
   51.3741,      1250,
   51.4044,      1236,
   51.4347,      1220,
   51.4651,      1156,
   51.4954,       985,
   51.5257,       985,
    51.556,       987,
   51.5864,       971,
   51.6167,       945,
    51.647,       943,
   51.6774,       887,
   51.7077,       945,
    51.738,       844,
   51.7683,       887,
   51.7987,       864,
    51.829,       897,
   51.8593,       840,
   51.8897,       797,
     51.92,       833,
   51.9503,       839,
   51.9806,       848,
    52.011,       860,
   52.0413,       831,
   52.0716,       790,
   52.1019,       775,
   52.1323,       786,
   52.1626,       785,
   52.1929,       778,
   52.2233,       788,
   52.2536,       740,
   52.2839,       748,
   52.3142,       791,
   52.3446,       794,
   52.3749,       739,
   52.4052,       798,
   52.4356,       827,
   52.4659,       798,
   52.4962,       823,
   52.5265,       845,
   52.5569,       809,
   52.5872,       807,
   52.6175,       795,
   52.6479,       815,
   52.6782,       832,
   52.7085,       750,
   52.7388,       754,
   52.7692,       753,
   52.7995,       733,
   52.8298,       722,
   52.8602,       728,
   52.8905,       767,
   52.9208,       745,
   52.9511,       756,
   52.9815,       765,
   53.0118,       750,
   53.0421,       792,
   53.0724,       781,
   53.1028,       791,
   53.1331,       740,
   53.1634,       808,
   53.1938,       764,
   53.2241,       821,
   53.2544,       881,
   53.2847,       906,
   53.3151,       892,
   53.3454,       845,
   53.3757,       910,
   53.4061,       848,
   53.4364,       890,
   53.4667,       924,
    53.497,       971,
   53.5274,       975,
   53.5577,      1029,
    53.588,      1175,
   53.6184,      1357,
   53.6487,      1708,
    53.679,      2082,
   53.7093,      2373,
   53.7397,      2499,
     53.77,      2170,
   53.8003,      1991,
   53.8307,      1902,
    53.861,      1645,
   53.8913,      1507,
   53.9216,      1208,
    53.952,      1081,
   53.9823,       990,
   54.0126,       841,
   54.0429,       899,
   54.0733,       869,
   54.1036,       802,
   54.1339,       780,
   54.1643,       795,
   54.1946,       770,
   54.2249,       730,
   54.2552,       782,
   54.2856,       789,
   54.3159,       798,
   54.3462,       793,
   54.3766,       803,
   54.4069,       771,
   54.4372,       763,
   54.4675,       759,
   54.4979,       749,
   54.5282,       733,
   54.5585,       725,
   54.5889,       670,
   54.6192,       730,
   54.6495,       735,
   54.6798,       637,
   54.7102,       670,
   54.7405,       716,
   54.7708,       682,
   54.8012,       704,
   54.8315,       668,
   54.8618,       701,
   54.8921,       727,
   54.9225,       723,
   54.9528,       729,
   54.9831,       721,
   55.0134,       715,
   55.0438,       725,
   55.0741,       739,
   55.1044,       732,
   55.1348,       778,
   55.1651,       787,
   55.1954,       791,
   55.2257,       857,
   55.2561,       934,
   55.2864,      1061,
   55.3167,      1166,
   55.3471,      1142,
   55.3774,      1124,
   55.4077,      1117,
    55.438,      1130,
   55.4684,      1038,
   55.4987,      1010,
    55.529,      1037,
   55.5594,       958,
   55.5897,       988,
     55.62,       997,
   55.6503,      1128,
   55.6807,      1328,
    55.711,      1529,
   55.7413,      1823,
   55.7717,      1938,
    55.802,      2168,
   55.8323,      2088,
   55.8626,      2007,
    55.893,      1955,
   55.9233,      1926,
   55.9536,      1748,
   55.9839,      1701,
   56.0143,      1521,
   56.0446,      1511,
   56.0749,      1462,
   56.1053,      1503,
   56.1356,      1478,
   56.1659,      1471,
   56.1962,      1534,
   56.2266,      1550,
   56.2569,      1494,
   56.2872,      1529,
   56.3176,      1458,
   56.3479,      1586,
   56.3782,      1528,
   56.4085,      1564,
   56.4389,      1593,
   56.4692,      1657,
   56.4995,      1634,
   56.5299,      1665,
   56.5602,      1704,
   56.5905,      1786,
   56.6208,      1886,
   56.6512,      1998,
   56.6815,      2016,
   56.7118,      2037,
   56.7422,      2031,
   56.7725,      2122,
   56.8028,      2115,
   56.8331,      2134,
   56.8635,      2018,
   56.8938,      2036,
   56.9241,      2166,
   56.9544,      2459,
   56.9848,      2517,
   57.0151,      2548,
   57.0454,      2241,
   57.0758,      2144,
   57.1061,      1994,
   57.1364,      1988,
   57.1667,      1711,
   57.1971,      1531,
   57.2274,      1398,
   57.2577,      1298,
   57.2881,      1333,
   57.3184,      1296,
   57.3487,      1315,
    57.379,      1255,
   57.4094,      1302,
   57.4397,      1375,
     57.47,      1397,
   57.5004,      1451,
   57.5307,      1418,
    57.561,      1504,
   57.5913,      1516,
   57.6217,      1495,
    57.652,      1460,
   57.6823,      1533,
   57.7127,      1480,
    57.743,      1387,
   57.7733,      1450,
   57.8036,      1373,
    57.834,      1377,
   57.8643,      1302,
   57.8946,      1296,
    57.925,      1261,
   57.9553,      1183,
   57.9856,      1149,
   58.0159,      1093,
   58.0463,      1085,
   58.0766,      1088,
   58.1069,      1098,
   58.1372,       985,
   58.1676,      1025,
   58.1979,       918,
   58.2282,       987,
   58.2586,       945,
   58.2889,       946,
   58.3192,       912,
   58.3495,       889,
   58.3799,       881,
   58.4102,       906,
   58.4405,       854,
   58.4709,       898,
   58.5012,       908,
   58.5315,       862,
   58.5618,       860,
   58.5922,       784,
   58.6225,       835,
   58.6528,       901,
   58.6832,       861,
   58.7135,       890,
   58.7438,       929,
   58.7741,       899,
   58.8045,       952,
   58.8348,      1031,
   58.8651,      1158,
   58.8955,      1257,
   58.9258,      1372,
   58.9561,      1445,
   58.9864,      1481,
   59.0168,      1346,
   59.0471,      1326,
   59.0774,      1228,
   59.1077,      1148,
   59.1381,      1144,
   59.1684,      1013,
   59.1987,       923,
   59.2291,       867,
   59.2594,       838,
   59.2897,       842,
     59.32,       789,
   59.3504,       804,
   59.3807,       702,
    59.411,       761,
   59.4414,       745,
   59.4717,       717,
    59.502,       740,
   59.5323,       717,
   59.5627,       694,
    59.593,       712,
   59.6233,       751,
   59.6537,       738,
    59.684,       732,
   59.7143,       715,
   59.7446,       723,
    59.775,       749,
   59.8053,       707,
   59.8356,       717,
    59.866,       702,
   59.8963,       670,
   59.9266,       727,
   59.9569,       635,
   59.9873,       679,
   60.0176,       668,
   60.0479,       661,
   60.0782,       709,
   60.1086,       676,
   60.1389,       707,
   60.1692,       696,
   60.1996,       727,
   60.2299,       667,
   60.2602,       663,
   60.2905,       644,
   60.3209,       623,
   60.3512,       676,
   60.3815,       705,
   60.4119,       657,
   60.4422,       662,
   60.4725,       608,
   60.5028,       609,
   60.5332,       609,
   60.5635,       623,
   60.5938,       612,
   60.6242,       620,
   60.6545,       594,
   60.6848,       601,
   60.7151,       590,
   60.7455,       631,
   60.7758,       637,
   60.8061,       645,
   60.8365,       645,
   60.8668,       596,
   60.8971,       627,
   60.9274,       637,
   60.9578,       676,
   60.9881,       676,
   61.0184,       721,
   61.0487,       689,
   61.0791,       672,
   61.1094,       664,
   61.1397,       671,
   61.1701,       634,
   61.2004,       635,
   61.2307,       651,
    61.261,       617,
   61.2914,       625,
   61.3217,       720,
    61.352,       656,
   61.3824,       653,
   61.4127,       690,
    61.443,       768,
   61.4733,       735,
   61.5037,       821,
    61.534,       913,
   61.5643,      1037,
   61.5947,      1204,
    61.625,      1306,
   61.6553,      1219,
   61.6856,      1225,
    61.716,      1110,
   61.7463,      1085,
   61.7766,      1057,
    61.807,       957,
   61.8373,       870,
   61.8676,       786,
   61.8979,       745,
   61.9283,       682,
   61.9586,       728,
   61.9889,       748,
   62.0192,       684,
   62.0496,       697,
   62.0799,       726,
   62.1102,       734,
   62.1406,       748,
   62.1709,       794,
   62.2012,       861,
   62.2315,       840,
   62.2619,       899,
   62.2922,       985,
   62.3225,       964,
   62.3529,       926,
   62.3832,       914,
   62.4135,       871,
   62.4438,       863,
   62.4742,       799,
   62.5045,       764,
   62.5348,       711,
   62.5652,       680,
   62.5955,       657,
   62.6258,       617,
   62.6561,       607,
   62.6865,       611,
   62.7168,       622,
   62.7471,       619,
   62.7775,       568,
   62.8078,       592,
   62.8381,       590,
   62.8684,       613,
   62.8988,       576,
   62.9291,       603,
   62.9594,       617,
   62.9898,       570,
   63.0201,       588,
   63.0504,       612,
   63.0807,       616,
   63.1111,       619,
   63.1414,       617,
   63.1717,       617,
    63.202,       606,
   63.2324,       575,
   63.2627,       582,
    63.293,       624,
   63.3234,       609,
   63.3537,       601,
    63.384,       628,
   63.4143,       623,
   63.4447,       665,
    63.475,       590,
   63.5053,       621,
   63.5357,       691,
    63.566,       675,
   63.5963,       661,
   63.6266,       681,
    63.657,       599,
   63.6873,       625,
   63.7176,       609,
    63.748,       605,
   63.7783,       602,
   63.8086,       625,
   63.8389,       575,
   63.8693,       596,
   63.8996,       633,
   63.9299,       589,
   63.9603,       568,
   63.9906,       601,
   64.0209,       614,
   64.0512,       558,
   64.0816,       627,
   64.1119,       581,
   64.1422,       603,
   64.1725,       593,
   64.2029,       589,
   64.2332,       588,
   64.2635,       613,
   64.2939,       607,
   64.3242,       571,
   64.3545,       596,
   64.3848,       594,
   64.4152,       577,
   64.4455,       583,
   64.4758,       605,
   64.5062,       611,
   64.5365,       611,
   64.5668,       658,
   64.5971,       604,
   64.6275,       586,
   64.6578,       637,
   64.6881,       653,
   64.7185,       621,
   64.7488,       627,
   64.7791,       605,
   64.8094,       646,
   64.8398,       608,
   64.8701,       633,
   64.9004,       613,
   64.9308,       631,
   64.9611,       642,
   64.9914,       599,
   65.0217,       639,
   65.0521,       634,
   65.0824,       587,
   65.1127,       610,
    65.143,       570,
   65.1734,       607,
   65.2037,       649,
    65.234,       638,
   65.2644,       613,
   65.2947,       600,
    65.325,       652,
   65.3553,       625,
   65.3857,       575,
    65.416,       607,
   65.4463,       544,
   65.4767,       608,
    65.507,       568,
   65.5373,       622,
   65.5676,       584,
    65.598,       604,
   65.6283,       541,
   65.6586,       599,
    65.689,       609,
   65.7193,       563,
   65.7496,       568,
   65.7799,       583,
   65.8103,       550,
   65.8406,       618,
   65.8709,       636,
   65.9013,       597,
   65.9316,       595,
   65.9619,       561,
   65.9922,       599,
   66.0226,       535,
   66.0529,       599,
   66.0832,       606,
   66.1135,       633,
   66.1439,       655,
   66.1742,       623,
   66.2045,       624,
   66.2349,       611,
   66.2652,       575,
   66.2955,       592,
   66.3258,       576,
   66.3562,       570,
   66.3865,       618,
   66.4168,       621,
   66.4472,       605,
   66.4775,       625,
   66.5078,       635,
   66.5381,       605,
   66.5685,       571,
   66.5988,       587,
   66.6291,       591,
   66.6595,       633,
   66.6898,       663,
   66.7201,       716,
   66.7504,       768,
   66.7808,       788,
   66.8111,       809,
   66.8414,       801,
   66.8718,       769,
   66.9021,       754,
   66.9324,       784,
   66.9627,       784,
   66.9931,       778,
   67.0234,       740,
   67.0537,       704,
    67.084,       709,
   67.1144,       710,
   67.1447,       688,
    67.175,       630,
   67.2054,       635,
   67.2357,       661,
    67.266,       648,
   67.2963,       670,
   67.3267,       652,
    67.357,       658,
   67.3873,       673,
   67.4177,       685,
    67.448,       694,
   67.4783,       712,
   67.5086,       759,
    67.539,       720,
   67.5693,       733,
   67.5996,       730,
     67.63,       733,
   67.6603,       758,
   67.6906,       816,
   67.7209,       960,
   67.7513,      1011,
   67.7816,      1019,
   67.8119,      1114,
   67.8423,      1174,
   67.8726,      1110,
   67.9029,      1033,
   67.9332,      1038,
   67.9636,       978,
   67.9939,       992,
   68.0242,       917,
   68.0546,       757,
   68.0849,       848,
   68.1152,       739,
   68.1455,       726,
   68.1759,       734,
   68.2062,       727,
   68.2365,       722,
   68.2668,       729,
   68.2972,       738,
   68.3275,       760,
   68.3578,       780,
   68.3882,       733,
   68.4185,       782,
   68.4488,       841,
   68.4791,       856,
   68.5095,       892,
   68.5398,       902,
   68.5701,       901,
   68.6005,       910,
   68.6308,       952,
   68.6611,       939,
   68.6914,       885,
   68.7218,       844,
   68.7521,       906,
   68.7824,       869,
   68.8128,       832,
   68.8431,       852,
   68.8734,       802,
   68.9037,       775,
   68.9341,       776,
   68.9644,       760,
   68.9947,       679,
   69.0251,       739,
   69.0554,       715,
   69.0857,       756,
    69.116,       708,
   69.1464,       699,
   69.1767,       663,
    69.207,       664,
   69.2373,       675,
   69.2677,       630,
    69.298,       622,
   69.3283,       635,
   69.3587,       623,
    69.389,       619,
   69.4193,       636,
   69.4496,       681,
     69.48,       659,
   69.5103,       611,
   69.5406,       684,
    69.571,       669,
   69.6013,       637,
   69.6316,       655,
   69.6619,       661,
   69.6923,       609,
   69.7226,       617,
   69.7529,       616,
   69.7833,       635,
   69.8136,       643,
   69.8439,       704,
   69.8742,       641,
   69.9046,       658,
   69.9349,       703,
   69.9652,       720,
   69.9956,       706,
