;RAW4.00
[RawHeader]
Date=04/23/2019
EstimatedTotalTime=2312.7
FurtherDQLReading=0
HardwareIndicator=65519
MeasuredTotalTime=2312.7
MeasurementFlag=1
NumberOfMeasuredRanges=1
NumberOfRanges=1
Time=11:35:44

[VarInfo]
Type=USER
Flags=0
Value=Bruker Service

[VarInfo]
Type=SAMPLEID
Flags=0
Value=Commander Sample ID

[VarInfo]
Type=COMMENT
Flags=0
Value=

[VarInfo]
Type=UTF
Flags=0
Value=

[VarInfo]
Type=CREATOR
Flags=0
Value=BrmlToV4Converter

[VarInfo]
Type=CREATOR_VERSION
Flags=0
Value=7.3.0.0

[HardwareConfiguration]
AbsorptionFactor=9999
ActivateAbsorber=0
Alpha1=1.78897
Alpha2=1.79285
AlphaAverage=1.79026
AlphaRatio=0.5
Analyzer=0
Anode=Co
AntiScatteringSlit=9999
BeamOpticsFlags=0
Beta=1.62079
BetaRelativeIntensity=0
DeactivateAbsorber=0
DetectorSlit=9999
DivergenceSlit=1
GoniometerControl=0
GoniometerDiameter=282
GoniometerModel=256
GoniometerStage=7
Monochromator=0
NearSampleSlit=9999
PrimarySollerSlit=9999
SampleChanger=0
SecondSollerSlit=9999
SynchronousAxis=0
ThinFilmAttachment=9999
WaveUnit=A

[RangeHeader]
ActuallyUsedLambda=1.79026
AdditionalDetectorMask=257
DataRecordLength=4
DelayTime=0
DisplayPlaneNumber=0
EstimatedScanTime=2313
ExtraParametersMask=0
GeneratorCurrent=10
GeneratorVoltage=30
Increment=0.0303281
Increment3=0
NumberOfCompletedData=2144
NumberOfCounts=1
NumberOfDetectors=0
NumberOfDrives=2
NumberOfEncoderDrives=0
NumberOfMeasuredData=2144
NumberOfVaryingParameters=0
RangeStartTime=0
RotationSpeed=1
ScanMode=1
ScanType=Locked Coupled
SimulatedMeasConditions=0
SlitChangerIn=0
SmootingWidth=0
Start=5.00234
Steps=2144
SynchronousRotation=0
Time=165

[VarInfo]
Type=PSD_DISCRIM
Flags=0
Value=0.11;0.25

[PSD]
ActualTwoTheta=9999
FirstUsedChannel=0
FixedPSD=0
PSDOpening=5.00414
PSDType=5

[Drive]
DriveFlags=1
DriveName=2Theta
DriveNumber=2
DriveOffset=0
OffsetIndex=0
OscillationAmplitude=0
OscillationSpeed=0
StartPosition=5.00234

[Drive]
DriveFlags=1
DriveName=Theta
DriveNumber=1
DriveOffset=0
OffsetIndex=0
OscillationAmplitude=0
OscillationSpeed=0
StartPosition=2.50117

[Data]
     Angle,       PSD,
   5.00234,      8779,
   5.03267,      8598,
     5.063,      8415,
   5.09333,      8531,
   5.12365,      8230,
   5.15398,      8276,
   5.18431,      8153,
   5.21464,      7920,
   5.24497,      7625,
   5.27529,      7811,
   5.30562,      7620,
   5.33595,      7399,
   5.36628,      7316,
   5.39661,      7239,
   5.42694,      6951,
   5.45726,      6991,
   5.48759,      6644,
   5.51792,      6506,
   5.54825,      6216,
   5.57858,      5990,
    5.6089,      5825,
   5.63923,      5547,
   5.66956,      5674,
   5.69989,      5573,
   5.73022,      5537,
   5.76055,      5499,
   5.79087,      5447,
    5.8212,      5242,
   5.85153,      5281,
   5.88186,      5173,
   5.91219,      5004,
   5.94251,      5057,
   5.97284,      4904,
   6.00317,      4929,
    6.0335,      4853,
   6.06383,      4813,
   6.09415,      4791,
   6.12448,      4627,
   6.15481,      4576,
   6.18514,      4569,
   6.21547,      4366,
    6.2458,      4348,
   6.27612,      4260,
   6.30645,      4278,
   6.33678,      4182,
   6.36711,      4138,
   6.39744,      4207,
   6.42776,      4060,
   6.45809,      4003,
   6.48842,      3983,
   6.51875,      3905,
   6.54908,      3966,
    6.5794,      3765,
   6.60973,      3615,
   6.64006,      3503,
   6.67039,      3594,
   6.70072,      3627,
   6.73105,      3473,
   6.76137,      3496,
    6.7917,      3340,
   6.82203,      3420,
   6.85236,      3300,
   6.88269,      3377,
   6.91301,      3304,
   6.94334,      3214,
   6.97367,      3180,
     7.004,      3238,
   7.03433,      3187,
   7.06466,      3056,
   7.09498,      3014,
   7.12531,      3082,
   7.15564,      2964,
   7.18597,      2938,
    7.2163,      2950,
   7.24662,      2897,
   7.27695,      2882,
   7.30728,      2782,
   7.33761,      2826,
   7.36794,      2718,
   7.39826,      2739,
   7.42859,      2608,
   7.45892,      2660,
   7.48925,      2538,
   7.51958,      2475,
   7.54991,      2561,
   7.58023,      2564,
   7.61056,      2546,
   7.64089,      2456,
   7.67122,      2473,
   7.70155,      2334,
   7.73187,      2397,
    7.7622,      2320,
   7.79253,      2393,
   7.82286,      2195,
   7.85319,      2334,
   7.88352,      2410,
   7.91384,      2334,
   7.94417,      2148,
    7.9745,      2282,
   8.00483,      2200,
   8.03516,      2192,
   8.06548,      2179,
   8.09581,      2085,
   8.12614,      2111,
   8.15647,      2093,
    8.1868,      2099,
   8.21712,      2061,
   8.24745,      2025,
   8.27778,      1999,
   8.30811,      1928,
   8.33844,      1892,
   8.36877,      1909,
   8.39909,      1953,
   8.42942,      1876,
   8.45975,      1805,
   8.49008,      1846,
   8.52041,      1818,
   8.55073,      1854,
   8.58106,      1784,
   8.61139,      1757,
   8.64172,      1826,
   8.67205,      1763,
   8.70237,      1730,
    8.7327,      1687,
   8.76303,      1668,
   8.79336,      1687,
   8.82369,      1716,
   8.85402,      1622,
   8.88434,      1727,
   8.91467,      1666,
     8.945,      1537,
   8.97533,      1605,
   9.00566,      1606,
   9.03598,      1597,
   9.06631,      1527,
   9.09664,      1586,
   9.12697,      1595,
    9.1573,      1501,
   9.18763,      1552,
   9.21795,      1535,
   9.24828,      1552,
   9.27861,      1591,
   9.30894,      1563,
   9.33927,      1515,
   9.36959,      1484,
   9.39992,      1504,
   9.43025,      1452,
   9.46058,      1406,
   9.49091,      1489,
   9.52123,      1416,
   9.55156,      1412,
   9.58189,      1459,
   9.61222,      1517,
   9.64255,      1416,
   9.67288,      1407,
    9.7032,      1403,
   9.73353,      1384,
   9.76386,      1378,
   9.79419,      1351,
   9.82452,      1383,
   9.85484,      1373,
   9.88517,      1355,
    9.9155,      1394,
   9.94583,      1345,
   9.97616,      1427,
   10.0065,      1366,
   10.0368,      1337,
   10.0671,      1296,
   10.0975,      1320,
   10.1278,      1365,
   10.1581,      1314,
   10.1885,      1343,
   10.2188,      1327,
   10.2491,      1283,
   10.2794,      1262,
   10.3098,      1271,
   10.3401,      1282,
   10.3704,      1312,
   10.4008,      1328,
   10.4311,      1219,
   10.4614,      1252,
   10.4917,      1323,
   10.5221,      1299,
   10.5524,      1361,
   10.5827,      1280,
    10.613,      1267,
   10.6434,      1274,
   10.6737,      1262,
    10.704,      1213,
   10.7344,      1202,
   10.7647,      1263,
    10.795,      1281,
   10.8253,      1184,
   10.8557,      1256,
    10.886,      1268,
   10.9163,      1176,
   10.9467,      1293,
    10.977,      1240,
   11.0073,      1159,
   11.0376,      1316,
    11.068,      1264,
   11.0983,      1192,
   11.1286,      1279,
    11.159,      1182,
   11.1893,      1252,
   11.2196,      1206,
   11.2499,      1204,
   11.2803,      1198,
   11.3106,      1192,
   11.3409,      1202,
   11.3713,      1127,
   11.4016,      1189,
   11.4319,      1202,
   11.4622,      1145,
   11.4926,      1159,
   11.5229,      1213,
   11.5532,      1183,
   11.5835,      1128,
   11.6139,      1157,
   11.6442,      1203,
   11.6745,      1220,
   11.7049,      1294,
   11.7352,      1177,
   11.7655,      1153,
   11.7958,      1189,
   11.8262,      1166,
   11.8565,      1127,
   11.8868,      1152,
   11.9172,      1215,
   11.9475,      1200,
   11.9778,      1095,
   12.0081,      1190,
   12.0385,      1145,
   12.0688,      1206,
   12.0991,      1127,
   12.1295,      1108,
   12.1598,      1191,
   12.1901,      1151,
   12.2204,      1047,
   12.2508,      1182,
   12.2811,      1128,
   12.3114,      1182,
   12.3418,      1109,
   12.3721,      1116,
   12.4024,      1105,
   12.4327,      1095,
   12.4631,      1068,
   12.4934,      1125,
   12.5237,      1104,
    12.554,      1122,
   12.5844,      1138,
   12.6147,      1098,
    12.645,      1156,
   12.6754,      1141,
   12.7057,      1118,
    12.736,      1087,
   12.7663,      1127,
   12.7967,      1094,
    12.827,      1118,
   12.8573,      1162,
   12.8877,      1125,
    12.918,      1168,
   12.9483,      1075,
   12.9786,      1123,
    13.009,      1123,
   13.0393,      1045,
   13.0696,      1084,
      13.1,      1095,
   13.1303,      1080,
   13.1606,      1099,
   13.1909,      1120,
   13.2213,      1105,
   13.2516,      1077,
   13.2819,      1113,
   13.3123,      1100,
   13.3426,      1049,
   13.3729,      1055,
   13.4032,      1159,
   13.4336,      1034,
   13.4639,      1104,
   13.4942,      1172,
   13.5245,      1118,
   13.5549,      1210,
   13.5852,      1116,
   13.6155,      1116,
   13.6459,      1083,
   13.6762,      1130,
   13.7065,      1074,
   13.7368,      1039,
   13.7672,      1012,
   13.7975,      1066,
   13.8278,      1031,
   13.8582,      1086,
   13.8885,      1092,
   13.9188,      1120,
   13.9491,      1080,
   13.9795,      1002,
   14.0098,      1050,
   14.0401,      1040,
   14.0705,      1021,
   14.1008,      1017,
   14.1311,      1022,
   14.1614,       986,
   14.1918,      1075,
   14.2221,      1049,
   14.2524,      1089,
   14.2828,      1003,
   14.3131,      1090,
   14.3434,      1095,
   14.3737,      1049,
   14.4041,       995,
   14.4344,      1072,
   14.4647,      1050,
   14.4951,      1064,
   14.5254,       996,
   14.5557,      1057,
    14.586,      1069,
   14.6164,      1064,
   14.6467,       988,
    14.677,      1048,
   14.7073,      1050,
   14.7377,      1001,
    14.768,       987,
   14.7983,       971,
   14.8287,      1066,
    14.859,       980,
   14.8893,      1038,
   14.9196,      1092,
     14.95,      1022,
   14.9803,       979,
   15.0106,      1006,
    15.041,      1076,
   15.0713,      1005,
   15.1016,       962,
   15.1319,      1051,
   15.1623,       959,
   15.1926,      1024,
   15.2229,      1017,
   15.2533,      1009,
   15.2836,       985,
   15.3139,      1019,
   15.3442,       981,
   15.3746,       994,
   15.4049,       940,
   15.4352,       918,
   15.4656,      1037,
   15.4959,       984,
   15.5262,      1012,
   15.5565,       943,
   15.5869,       972,
   15.6172,       916,
   15.6475,       997,
   15.6778,       986,
   15.7082,       971,
   15.7385,       976,
   15.7688,       952,
   15.7992,       929,
   15.8295,       968,
   15.8598,      1043,
   15.8901,       969,
   15.9205,      1022,
   15.9508,       951,
   15.9811,       962,
   16.0115,       894,
   16.0418,       935,
   16.0721,       983,
   16.1024,      1001,
   16.1328,       925,
   16.1631,       939,
   16.1934,       956,
   16.2238,       970,
   16.2541,       940,
   16.2844,       938,
   16.3147,       954,
   16.3451,       969,
   16.3754,       928,
   16.4057,       925,
   16.4361,       943,
   16.4664,       964,
   16.4967,       950,
    16.527,       940,
   16.5574,       910,
   16.5877,       932,
    16.618,       913,
   16.6483,       963,
   16.6787,      1022,
    16.709,      1066,
   16.7393,       965,
   16.7697,       911,
      16.8,       947,
   16.8303,       871,
   16.8606,       954,
    16.891,       945,
   16.9213,       980,
   16.9516,       921,
    16.982,       875,
   17.0123,       933,
   17.0426,       930,
   17.0729,       946,
   17.1033,       897,
   17.1336,       897,
   17.1639,       913,
   17.1943,       994,
   17.2246,       852,
   17.2549,       914,
   17.2852,       877,
   17.3156,       867,
   17.3459,       831,
   17.3762,       882,
   17.4066,       855,
   17.4369,       867,
   17.4672,       880,
   17.4975,       898,
   17.5279,       867,
   17.5582,       864,
   17.5885,       916,
   17.6188,       868,
   17.6492,       898,
   17.6795,       875,
   17.7098,       889,
   17.7402,       881,
   17.7705,       899,
   17.8008,       808,
   17.8311,       822,
   17.8615,       872,
   17.8918,       779,
   17.9221,       880,
   17.9525,       882,
   17.9828,       852,
   18.0131,       882,
   18.0434,       867,
   18.0738,       803,
   18.1041,       942,
   18.1344,       885,
   18.1648,       864,
   18.1951,       825,
   18.2254,       907,
   18.2557,       842,
   18.2861,       872,
   18.3164,       857,
   18.3467,       879,
   18.3771,       838,
   18.4074,       859,
   18.4377,       829,
    18.468,       834,
   18.4984,       856,
   18.5287,       864,
    18.559,       907,
   18.5893,       860,
   18.6197,       841,
     18.65,       824,
   18.6803,       818,
   18.7107,       847,
    18.741,       790,
   18.7713,       843,
   18.8016,       861,
    18.832,       848,
   18.8623,       832,
   18.8926,       843,
    18.923,       824,
   18.9533,       851,
   18.9836,       845,
   19.0139,       806,
   19.0443,       815,
   19.0746,       841,
   19.1049,       831,
   19.1353,       798,
   19.1656,       820,
   19.1959,       818,
   19.2262,       800,
   19.2566,       859,
   19.2869,       845,
   19.3172,       816,
   19.3476,       829,
   19.3779,       826,
   19.4082,       813,
   19.4385,       846,
   19.4689,       771,
   19.4992,       772,
   19.5295,       809,
   19.5599,       822,
   19.5902,       785,
   19.6205,       831,
   19.6508,       785,
   19.6812,       775,
   19.7115,       853,
   19.7418,       782,
   19.7721,       838,
   19.8025,       855,
   19.8328,       799,
   19.8631,       805,
   19.8935,       856,
   19.9238,       819,
   19.9541,       743,
   19.9844,       762,
   20.0148,       843,
   20.0451,       767,
   20.0754,       826,
   20.1058,       819,
   20.1361,       840,
   20.1664,       852,
   20.1967,       837,
   20.2271,       818,
   20.2574,       804,
   20.2877,       864,
   20.3181,       757,
   20.3484,       788,
   20.3787,       841,
    20.409,       797,
   20.4394,       835,
   20.4697,       822,
      20.5,       767,
   20.5304,       784,
   20.5607,       861,
    20.591,       798,
   20.6213,       788,
   20.6517,       748,
    20.682,       846,
   20.7123,       777,
   20.7426,       811,
    20.773,       787,
   20.8033,       822,
   20.8336,       766,
    20.864,       842,
   20.8943,       786,
   20.9246,       815,
   20.9549,       781,
   20.9853,       780,
   21.0156,       811,
   21.0459,       822,
   21.0763,       824,
   21.1066,       848,
   21.1369,       795,
   21.1672,       784,
   21.1976,       781,
   21.2279,       773,
   21.2582,       759,
   21.2886,       745,
   21.3189,       790,
   21.3492,       798,
   21.3795,       747,
   21.4099,       772,
   21.4402,       805,
   21.4705,       757,
   21.5009,       751,
   21.5312,       814,
   21.5615,       785,
   21.5918,       750,
   21.6222,       740,
   21.6525,       791,
   21.6828,       768,
   21.7131,       780,
   21.7435,       748,
   21.7738,       794,
   21.8041,       770,
   21.8345,       773,
   21.8648,       739,
   21.8951,       723,
   21.9254,       738,
   21.9558,       715,
   21.9861,       803,
   22.0164,       737,
   22.0468,       729,
   22.0771,       742,
   22.1074,       758,
   22.1377,       753,
   22.1681,       795,
   22.1984,       790,
   22.2287,       780,
   22.2591,       769,
   22.2894,       781,
   22.3197,       709,
     22.35,       741,
   22.3804,       746,
   22.4107,       756,
    22.441,       767,
   22.4714,       748,
   22.5017,       737,
    22.532,       745,
   22.5623,       778,
   22.5927,       712,
    22.623,       722,
   22.6533,       803,
   22.6836,       826,
    22.714,       792,
   22.7443,       769,
   22.7746,       760,
    22.805,       770,
   22.8353,       785,
   22.8656,       803,
   22.8959,       745,
   22.9263,       798,
   22.9566,       883,
   22.9869,       786,
   23.0173,       876,
   23.0476,       742,
   23.0779,       831,
   23.1082,       846,
   23.1386,       786,
   23.1689,       819,
   23.1992,       797,
   23.2296,       842,
   23.2599,       824,
   23.2902,       839,
   23.3205,       824,
   23.3509,       849,
   23.3812,       853,
   23.4115,       818,
   23.4419,       863,
   23.4722,       797,
   23.5025,       749,
   23.5328,       746,
   23.5632,       763,
   23.5935,       743,
   23.6238,       772,
   23.6541,       767,
   23.6845,       740,
   23.7148,       783,
   23.7451,       781,
   23.7755,       772,
   23.8058,       751,
   23.8361,       734,
   23.8664,       776,
   23.8968,       740,
   23.9271,       782,
   23.9574,       729,
   23.9878,       749,
   24.0181,       694,
   24.0484,       769,
   24.0787,       785,
   24.1091,       817,
   24.1394,       847,
   24.1697,       843,
   24.2001,       863,
   24.2304,       835,
   24.2607,       885,
    24.291,       907,
   24.3214,       996,
   24.3517,       914,
    24.382,       952,
   24.4124,       858,
   24.4427,       790,
    24.473,       871,
   24.5033,       838,
   24.5337,       895,
    24.564,       900,
   24.5943,       938,
   24.6246,       849,
    24.655,       759,
   24.6853,       720,
   24.7156,       761,
    24.746,       750,
   24.7763,       706,
   24.8066,       671,
   24.8369,       705,
   24.8673,       666,
   24.8976,       714,
   24.9279,       766,
   24.9583,       703,
   24.9886,       693,
   25.0189,       741,
   25.0492,       727,
   25.0796,       716,
   25.1099,       692,
   25.1402,       690,
   25.1706,       681,
   25.2009,       734,
   25.2312,       706,
   25.2615,       700,
   25.2919,       726,
   25.3222,       660,
   25.3525,       693,
   25.3829,       661,
   25.4132,       675,
   25.4435,       623,
   25.4738,       720,
   25.5042,       673,
   25.5345,       658,
   25.5648,       687,
   25.5952,       742,
   25.6255,       718,
   25.6558,       752,
   25.6861,       631,
   25.7165,       697,
   25.7468,       667,
   25.7771,       695,
   25.8074,       704,
   25.8378,       640,
   25.8681,       755,
   25.8984,       682,
   25.9288,       644,
   25.9591,       745,
   25.9894,       794,
   26.0197,       737,
   26.0501,       722,
   26.0804,       703,
   26.1107,       741,
   26.1411,       669,
   26.1714,       652,
   26.2017,       674,
    26.232,       674,
   26.2624,       668,
   26.2927,       695,
    26.323,       664,
   26.3534,       677,
   26.3837,       664,
    26.414,       689,
   26.4443,       678,
   26.4747,       683,
    26.505,       676,
   26.5353,       673,
   26.5657,       676,
    26.596,       722,
   26.6263,       691,
   26.6566,       633,
    26.687,       726,
   26.7173,       648,
   26.7476,       650,
   26.7779,       704,
   26.8083,       735,
   26.8386,       790,
   26.8689,       986,
   26.8993,      1057,
   26.9296,      1053,
   26.9599,       988,
   26.9902,       910,
   27.0206,       970,
   27.0509,       952,
   27.0812,      1011,
   27.1116,       945,
   27.1419,      1029,
   27.1722,      1045,
   27.2025,      1099,
   27.2329,      1173,
   27.2632,      1182,
   27.2935,      1106,
   27.3239,      1036,
   27.3542,       999,
   27.3845,       988,
   27.4148,       969,
   27.4452,       927,
   27.4755,       902,
   27.5058,       858,
   27.5362,       851,
   27.5665,       874,
   27.5968,       958,
   27.6271,       928,
   27.6575,       921,
   27.6878,       820,
   27.7181,       803,
   27.7484,       742,
   27.7788,       715,
   27.8091,       702,
   27.8394,       654,
   27.8698,       693,
   27.9001,       726,
   27.9304,       763,
   27.9607,       727,
   27.9911,       709,
   28.0214,       726,
   28.0517,       679,
   28.0821,       676,
   28.1124,       667,
   28.1427,       669,
    28.173,       682,
   28.2034,       632,
   28.2337,       687,
    28.264,       672,
   28.2944,       650,
   28.3247,       675,
    28.355,       622,
   28.3853,       606,
   28.4157,       688,
    28.446,       641,
   28.4763,       622,
   28.5067,       627,
    28.537,       643,
   28.5673,       678,
   28.5976,       662,
    28.628,       671,
   28.6583,       693,
   28.6886,       737,
   28.7189,       672,
   28.7493,       681,
   28.7796,       682,
   28.8099,       707,
   28.8403,       673,
   28.8706,       690,
   28.9009,       618,
   28.9312,       620,
   28.9616,       605,
   28.9919,       667,
   29.0222,       637,
   29.0526,       645,
   29.0829,       634,
   29.1132,       668,
   29.1435,       658,
   29.1739,       647,
   29.2042,       601,
   29.2345,       684,
   29.2649,       602,
   29.2952,       605,
   29.3255,       636,
   29.3558,       612,
   29.3862,       623,
   29.4165,       612,
   29.4468,       684,
   29.4772,       623,
   29.5075,       666,
   29.5378,       650,
   29.5681,       662,
   29.5985,       629,
   29.6288,       618,
   29.6591,       679,
   29.6894,       720,
   29.7198,       615,
   29.7501,       668,
   29.7804,       676,
   29.8108,       691,
   29.8411,       651,
   29.8714,       694,
   29.9017,       718,
   29.9321,       694,
   29.9624,       718,
   29.9927,       724,
   30.0231,       748,
   30.0534,       813,
   30.0837,       836,
    30.114,       836,
   30.1444,       852,
   30.1747,       826,
    30.205,       897,
   30.2354,       942,
   30.2657,       972,
    30.296,       995,
   30.3263,      1067,
   30.3567,      1141,
    30.387,      1463,
   30.4173,      1844,
   30.4477,      2347,
    30.478,      3751,
   30.5083,      6005,
   30.5386,      9294,
    30.569,     10551,
   30.5993,      8566,
   30.6296,      6867,
     30.66,      4553,
   30.6903,      2705,
   30.7206,      1870,
   30.7509,      1522,
   30.7813,      1335,
   30.8116,      1186,
   30.8419,      1112,
   30.8722,      1050,
   30.9026,      1043,
   30.9329,       952,
   30.9632,       932,
   30.9936,       933,
   31.0239,       941,
   31.0542,      1082,
   31.0845,      1004,
   31.1149,       999,
   31.1452,       898,
   31.1755,       875,
   31.2059,       939,
   31.2362,       907,
   31.2665,       898,
   31.2968,       913,
   31.3272,       963,
   31.3575,       971,
   31.3878,       918,
   31.4182,      1007,
   31.4485,       981,
   31.4788,      1083,
   31.5091,      1150,
   31.5395,      1164,
   31.5698,      1306,
   31.6001,      1504,
   31.6305,      1935,
   31.6608,      2674,
   31.6911,      3996,
   31.7214,      5220,
   31.7518,      5597,
   31.7821,      4652,
   31.8124,      3617,
   31.8427,      2672,
   31.8731,      1735,
   31.9034,      1313,
   31.9337,      1158,
   31.9641,      1075,
   31.9944,       977,
   32.0247,       931,
    32.055,       870,
   32.0854,       828,
   32.1157,       909,
    32.146,      1107,
   32.1764,      1198,
   32.2067,       977,
    32.237,       970,
   32.2673,       880,
   32.2977,       726,
    32.328,       720,
   32.3583,       708,
   32.3887,       720,
    32.419,       663,
   32.4493,       683,
   32.4796,       687,
     32.51,       652,
   32.5403,       654,
   32.5706,       661,
    32.601,       670,
   32.6313,       677,
   32.6616,       669,
   32.6919,       660,
   32.7223,       635,
   32.7526,       627,
   32.7829,       643,
   32.8132,       637,
   32.8436,       667,
   32.8739,       580,
   32.9042,       656,
   32.9346,       636,
   32.9649,       615,
   32.9952,       575,
   33.0255,       585,
   33.0559,       588,
   33.0862,       630,
   33.1165,       628,
   33.1469,       613,
   33.1772,       626,
   33.2075,       630,
   33.2378,       633,
   33.2682,       592,
   33.2985,       607,
   33.3288,       577,
   33.3592,       630,
   33.3895,       655,
   33.4198,       631,
   33.4501,       664,
   33.4805,       644,
   33.5108,       643,
   33.5411,       619,
   33.5715,       607,
   33.6018,       602,
   33.6321,       602,
   33.6624,       647,
   33.6928,       650,
   33.7231,       700,
   33.7534,       681,
   33.7837,       699,
   33.8141,       701,
   33.8444,       721,
   33.8747,       720,
   33.9051,       717,
   33.9354,       721,
   33.9657,       830,
    33.996,       797,
   34.0264,       781,
   34.0567,       866,
    34.087,       898,
   34.1174,       944,
   34.1477,       957,
    34.178,      1028,
   34.2083,      1162,
   34.2387,      1441,
    34.269,      1848,
   34.2993,      2814,
   34.3297,      3691,
     34.36,      3934,
   34.3903,      3744,
   34.4206,      3537,
    34.451,      3170,
   34.4813,      2940,
   34.5116,      2790,
    34.542,      2737,
   34.5723,      2840,
   34.6026,      3145,
   34.6329,      3369,
   34.6633,      3748,
   34.6936,      3935,
   34.7239,      4392,
   34.7542,      4542,
   34.7846,      4688,
   34.8149,      4878,
   34.8452,      4821,
   34.8756,      4709,
   34.9059,      4715,
   34.9362,      4372,
   34.9665,      4104,
   34.9969,      3763,
   35.0272,      3396,
   35.0575,      3189,
   35.0879,      2903,
   35.1182,      2637,
   35.1485,      2486,
   35.1788,      2216,
   35.2092,      2206,
   35.2395,      2065,
   35.2698,      1937,
   35.3002,      1895,
   35.3305,      1816,
   35.3608,      1734,
   35.3911,      1647,
   35.4215,      1620,
   35.4518,      1535,
   35.4821,      1496,
   35.5125,      1427,
   35.5428,      1402,
   35.5731,      1368,
   35.6034,      1327,
   35.6338,      1262,
   35.6641,      1249,
   35.6944,      1233,
   35.7248,      1157,
   35.7551,      1144,
   35.7854,      1190,
   35.8157,      1215,
   35.8461,      1267,
   35.8764,      1383,
   35.9067,      1484,
    35.937,      1424,
   35.9674,      1369,
   35.9977,      1370,
    36.028,      1390,
   36.0584,      1337,
   36.0887,      1151,
    36.119,      1194,
   36.1493,      1103,
   36.1797,      1044,
     36.21,      1034,
   36.2403,      1010,
   36.2707,      1134,
    36.301,      1170,
   36.3313,      1161,
   36.3616,      1079,
    36.392,       992,
   36.4223,       846,
   36.4526,       713,
    36.483,       681,
   36.5133,       658,
   36.5436,       671,
   36.5739,       662,
   36.6043,       671,
   36.6346,       673,
   36.6649,       661,
   36.6953,       682,
   36.7256,       692,
   36.7559,       700,
   36.7862,       679,
   36.8166,       674,
   36.8469,       630,
   36.8772,       647,
   36.9075,       609,
   36.9379,       633,
   36.9682,       613,
   36.9985,       664,
   37.0289,       662,
   37.0592,       711,
   37.0895,       651,
   37.1198,       688,
   37.1502,       637,
   37.1805,       676,
   37.2108,       692,
   37.2412,       684,
   37.2715,       679,
   37.3018,       739,
   37.3321,       639,
   37.3625,       706,
   37.3928,       659,
   37.4231,       599,
   37.4535,       680,
   37.4838,       668,
   37.5141,       638,
   37.5444,       637,
   37.5748,       637,
   37.6051,       655,
   37.6354,       785,
   37.6658,       693,
   37.6961,       634,
   37.7264,       645,
   37.7567,       710,
   37.7871,       686,
   37.8174,       631,
   37.8477,       667,
    37.878,       667,
   37.9084,       704,
   37.9387,       621,
    37.969,       666,
   37.9994,       687,
   38.0297,       739,
     38.06,       805,
   38.0903,       790,
   38.1207,       852,
    38.151,       927,
   38.1813,      1120,
   38.2117,      1243,
    38.242,      1322,
   38.2723,      1295,
   38.3026,      1178,
    38.333,      1060,
   38.3633,       962,
   38.3936,       892,
    38.424,       966,
   38.4543,      1003,
   38.4846,      1086,
   38.5149,      1161,
   38.5453,      1345,
   38.5756,      1939,
   38.6059,      2903,
   38.6363,      4336,
   38.6666,      5367,
   38.6969,      4951,
   38.7272,      4217,
   38.7576,      3615,
   38.7879,      2655,
   38.8182,      1798,
   38.8485,      1297,
   38.8789,      1018,
   38.9092,       915,
   38.9395,       834,
   38.9699,       804,
   39.0002,       807,
   39.0305,       715,
   39.0608,       726,
   39.0912,       676,
   39.1215,       618,
   39.1518,       658,
   39.1822,       647,
   39.2125,       604,
   39.2428,       587,
   39.2731,       580,
   39.3035,       594,
   39.3338,       570,
   39.3641,       578,
   39.3945,       565,
   39.4248,       584,
   39.4551,       574,
   39.4854,       507,
   39.5158,       522,
   39.5461,       534,
   39.5764,       524,
   39.6068,       563,
   39.6371,       604,
   39.6674,       588,
   39.6977,       517,
   39.7281,       515,
   39.7584,       557,
   39.7887,       578,
    39.819,       512,
   39.8494,       539,
   39.8797,       611,
     39.91,       549,
   39.9404,       610,
   39.9707,       628,
    40.001,       568,
   40.0313,       599,
   40.0617,       533,
    40.092,       522,
   40.1223,       551,
   40.1527,       526,
    40.183,       564,
   40.2133,       557,
   40.2436,       557,
    40.274,       577,
   40.3043,       575,
   40.3346,       579,
    40.365,       601,
   40.3953,       609,
   40.4256,       602,
   40.4559,       586,
   40.4863,       614,
   40.5166,       603,
   40.5469,       627,
   40.5773,       611,
   40.6076,       626,
   40.6379,       587,
   40.6682,       626,
   40.6986,       600,
   40.7289,       600,
   40.7592,       556,
   40.7895,       574,
   40.8199,       606,
   40.8502,       620,
   40.8805,       592,
   40.9109,       596,
   40.9412,       584,
   40.9715,       589,
   41.0018,       645,
   41.0322,       563,
   41.0625,       543,
   41.0928,       588,
   41.1232,       564,
   41.1535,       544,
   41.1838,       591,
   41.2141,       553,
   41.2445,       595,
   41.2748,       658,
   41.3051,       586,
   41.3355,       567,
   41.3658,       548,
   41.3961,       574,
   41.4264,       546,
   41.4568,       572,
   41.4871,       575,
   41.5174,       578,
   41.5478,       635,
   41.5781,       567,
   41.6084,       625,
   41.6387,       586,
   41.6691,       584,
   41.6994,       567,
   41.7297,       626,
   41.7601,       646,
   41.7904,       684,
   41.8207,       629,
    41.851,       761,
   41.8814,       707,
   41.9117,       806,
    41.942,       816,
   41.9723,       884,
   42.0027,       976,
    42.033,      1231,
   42.0633,      1470,
   42.0937,      1873,
    42.124,      2277,
   42.1543,      3035,
   42.1846,      3395,
    42.215,      3295,
   42.2453,      3362,
   42.2756,      3367,
    42.306,      2767,
   42.3363,      2303,
   42.3666,      1943,
   42.3969,      1721,
   42.4273,      1487,
   42.4576,      1355,
   42.4879,      1303,
   42.5183,      1259,
   42.5486,      1250,
   42.5789,      1231,
   42.6092,      1139,
   42.6396,      1156,
   42.6699,      1138,
   42.7002,      1151,
   42.7306,      1023,
   42.7609,      1028,
   42.7912,       996,
   42.8215,      1003,
   42.8519,       984,
   42.8822,       874,
   42.9125,       791,
   42.9428,       832,
   42.9732,       783,
   43.0035,       737,
   43.0338,       736,
   43.0642,       761,
   43.0945,       750,
   43.1248,       700,
   43.1551,       733,
   43.1855,       710,
   43.2158,       723,
   43.2461,       729,
   43.2765,       728,
   43.3068,       736,
   43.3371,       787,
   43.3674,       751,
   43.3978,       815,
   43.4281,       861,
   43.4584,       936,
   43.4888,      1107,
   43.5191,      1434,
   43.5494,      1641,
   43.5797,      1691,
   43.6101,      1587,
   43.6404,      1502,
   43.6707,      1255,
   43.7011,      1185,
   43.7314,      1020,
   43.7617,       849,
    43.792,       794,
   43.8224,       763,
   43.8527,       754,
    43.883,       688,
   43.9133,       715,
   43.9437,       711,
    43.974,       716,
   44.0043,       720,
   44.0347,       779,
    44.065,       841,
   44.0953,       838,
   44.1256,       944,
    44.156,      1070,
   44.1863,      1407,
   44.2166,      2069,
    44.247,      3099,
   44.2773,      4041,
   44.3076,      3849,
   44.3379,      3146,
   44.3683,      2804,
   44.3986,      2514,
   44.4289,      1827,
   44.4593,      1320,
   44.4896,      1076,
   44.5199,       870,
   44.5502,       890,
   44.5806,       849,
   44.6109,       855,
   44.6412,       859,
   44.6716,       814,
   44.7019,       821,
   44.7322,       888,
   44.7625,       937,
   44.7929,       924,
   44.8232,      1184,
   44.8535,      1589,
   44.8838,      2062,
   44.9142,      2667,
   44.9445,      2437,
   44.9748,      2075,
   45.0052,      2028,
   45.0355,      1962,
   45.0658,      1839,
   45.0961,      1911,
   45.1265,      2179,
   45.1568,      2287,
   45.1871,      2086,
   45.2175,      1741,
   45.2478,      1631,
   45.2781,      1333,
   45.3084,      1061,
   45.3388,       842,
   45.3691,       760,
   45.3994,       724,
   45.4298,       724,
   45.4601,       643,
   45.4904,       548,
   45.5207,       547,
   45.5511,       582,
   45.5814,       584,
   45.6117,       567,
   45.6421,       540,
   45.6724,       524,
   45.7027,       506,
    45.733,       577,
   45.7634,       558,
   45.7937,       556,
    45.824,       540,
   45.8543,       596,
   45.8847,       532,
    45.915,       596,
   45.9453,       584,
   45.9757,       593,
    46.006,       625,
   46.0363,       625,
   46.0666,       663,
    46.097,       719,
   46.1273,       850,
   46.1576,       970,
    46.188,       984,
   46.2183,       973,
   46.2486,       991,
   46.2789,       918,
   46.3093,       873,
   46.3396,       861,
   46.3699,       755,
   46.4003,       773,
   46.4306,       786,
   46.4609,       805,
   46.4912,       883,
   46.5216,       904,
   46.5519,       903,
   46.5822,       973,
   46.6126,       978,
   46.6429,      1031,
   46.6732,      1180,
   46.7035,      1151,
   46.7339,      1107,
   46.7642,      1163,
   46.7945,      1184,
   46.8249,      1166,
   46.8552,      1101,
   46.8855,      1113,
   46.9158,      1097,
   46.9462,      1067,
   46.9765,      1058,
   47.0068,       961,
   47.0371,       955,
   47.0675,       947,
   47.0978,       859,
   47.1281,       855,
   47.1585,       834,
   47.1888,       767,
   47.2191,       799,
   47.2494,       784,
   47.2798,       759,
   47.3101,       745,
   47.3404,       672,
   47.3708,       712,
   47.4011,       732,
   47.4314,       684,
   47.4617,       667,
   47.4921,       696,
   47.5224,       663,
   47.5527,       672,
   47.5831,       646,
   47.6134,       618,
   47.6437,       671,
    47.674,       636,
   47.7044,       677,
   47.7347,       630,
    47.765,       691,
   47.7954,       632,
   47.8257,       622,
    47.856,       627,
   47.8863,       728,
   47.9167,       766,
    47.947,       741,
   47.9773,       778,
   48.0076,       755,
    48.038,       787,
   48.0683,       798,
   48.0986,       882,
    48.129,       966,
   48.1593,      1227,
   48.1896,      1442,
   48.2199,      1526,
   48.2503,      1370,
   48.2806,      1245,
   48.3109,      1214,
   48.3413,      1125,
   48.3716,       952,
   48.4019,       887,
   48.4322,       752,
   48.4626,       629,
   48.4929,       601,
   48.5232,       569,
   48.5536,       585,
   48.5839,       595,
   48.6142,       554,
   48.6445,       521,
   48.6749,       514,
   48.7052,       563,
   48.7355,       559,
   48.7659,       532,
   48.7962,       527,
   48.8265,       517,
   48.8568,       549,
   48.8872,       509,
   48.9175,       456,
   48.9478,       520,
   48.9781,       484,
   49.0085,       442,
   49.0388,       475,
   49.0691,       469,
   49.0995,       504,
   49.1298,       462,
   49.1601,       488,
   49.1904,       465,
   49.2208,       511,
   49.2511,       475,
   49.2814,       467,
   49.3118,       481,
   49.3421,       478,
   49.3724,       490,
   49.4027,       433,
   49.4331,       457,
   49.4634,       458,
   49.4937,       461,
   49.5241,       466,
   49.5544,       478,
   49.5847,       484,
    49.615,       494,
   49.6454,       501,
   49.6757,       485,
    49.706,       518,
   49.7364,       500,
   49.7667,       543,
    49.797,       560,
   49.8273,       558,
   49.8577,       561,
    49.888,       538,
   49.9183,       506,
   49.9486,       551,
    49.979,       571,
   50.0093,       585,
   50.0396,       610,
     50.07,       569,
   50.1003,       639,
   50.1306,       710,
   50.1609,       915,
   50.1913,      1193,
   50.2216,      1542,
   50.2519,      2152,
   50.2823,      2177,
   50.3126,      1703,
   50.3429,      1562,
   50.3732,      1503,
   50.4036,      1373,
   50.4339,      1058,
   50.4642,       826,
   50.4946,       754,
   50.5249,       741,
   50.5552,       717,
   50.5855,       805,
   50.6159,       866,
   50.6462,       938,
   50.6765,       930,
   50.7069,       829,
   50.7372,       888,
   50.7675,       979,
   50.7978,       830,
   50.8282,       733,
   50.8585,       747,
   50.8888,       742,
   50.9191,       754,
   50.9495,       760,
   50.9798,       803,
   51.0101,       784,
   51.0405,       858,
   51.0708,       833,
   51.1011,       902,
   51.1314,       954,
   51.1618,       954,
   51.1921,       995,
   51.2224,      1033,
   51.2528,      1058,
   51.2831,      1020,
   51.3134,       978,
   51.3437,       952,
   51.3741,       947,
   51.4044,       940,
   51.4347,       921,
   51.4651,       936,
   51.4954,       838,
   51.5257,       853,
    51.556,       849,
   51.5864,       736,
   51.6167,       746,
    51.647,       768,
   51.6774,       731,
   51.7077,       695,
    51.738,       687,
   51.7683,       645,
   51.7987,       678,
    51.829,       642,
   51.8593,       647,
   51.8897,       666,
     51.92,       633,
   51.9503,       622,
   51.9806,       630,
    52.011,       624,
   52.0413,       626,
   52.0716,       597,
   52.1019,       583,
   52.1323,       565,
   52.1626,       581,
   52.1929,       536,
   52.2233,       555,
   52.2536,       585,
   52.2839,       517,
   52.3142,       559,
   52.3446,       524,
   52.3749,       551,
   52.4052,       554,
   52.4356,       531,
   52.4659,       574,
   52.4962,       521,
   52.5265,       509,
   52.5569,       565,
   52.5872,       562,
   52.6175,       554,
   52.6479,       579,
   52.6782,       526,
   52.7085,       506,
   52.7388,       529,
   52.7692,       525,
   52.7995,       497,
   52.8298,       493,
   52.8602,       501,
   52.8905,       540,
   52.9208,       507,
   52.9511,       513,
   52.9815,       536,
   53.0118,       535,
   53.0421,       534,
   53.0724,       553,
   53.1028,       531,
   53.1331,       546,
   53.1634,       532,
   53.1938,       552,
   53.2241,       579,
   53.2544,       640,
   53.2847,       688,
   53.3151,       735,
   53.3454,       772,
   53.3757,       859,
   53.4061,       849,
   53.4364,       883,
   53.4667,       857,
    53.497,       882,
   53.5274,       954,
   53.5577,       940,
    53.588,      1047,
   53.6184,      1136,
   53.6487,      1361,
    53.679,      1851,
   53.7093,      2635,
   53.7397,      4133,
     53.77,      5577,
   53.8003,      5579,
   53.8307,      4305,
    53.861,      3739,
   53.8913,      3726,
   53.9216,      3485,
    53.952,      2474,
   53.9823,      1687,
   54.0126,      1272,
   54.0429,      1043,
   54.0733,       957,
   54.1036,       835,
   54.1339,       720,
   54.1643,       719,
   54.1946,       645,
   54.2249,       622,
   54.2552,       609,
   54.2856,       562,
   54.3159,       536,
   54.3462,       519,
   54.3766,       540,
   54.4069,       523,
   54.4372,       559,
   54.4675,       514,
   54.4979,       491,
   54.5282,       518,
   54.5585,       541,
   54.5889,       496,
   54.6192,       524,
   54.6495,       534,
   54.6798,       522,
   54.7102,       498,
   54.7405,       489,
   54.7708,       507,
   54.8012,       494,
   54.8315,       482,
   54.8618,       515,
   54.8921,       458,
   54.9225,       494,
   54.9528,       474,
   54.9831,       506,
   55.0134,       501,
   55.0438,       468,
   55.0741,       460,
   55.1044,       499,
   55.1348,       505,
   55.1651,       502,
   55.1954,       462,
   55.2257,       510,
   55.2561,       521,
   55.2864,       566,
   55.3167,       572,
   55.3471,       598,
   55.3774,       619,
   55.4077,       681,
    55.438,       627,
   55.4684,       629,
   55.4987,       631,
    55.529,       613,
   55.5594,       587,
   55.5897,       580,
     55.62,       583,
   55.6503,       633,
   55.6807,       670,
    55.711,       701,
   55.7413,       784,
   55.7717,       810,
    55.802,       856,
   55.8323,       975,
   55.8626,       977,
    55.893,       976,
   55.9233,       933,
   55.9536,       981,
   55.9839,       908,
   56.0143,       957,
   56.0446,       938,
   56.0749,       901,
   56.1053,       857,
   56.1356,       875,
   56.1659,       878,
   56.1962,       920,
   56.2266,       927,
   56.2569,       937,
   56.2872,       902,
   56.3176,       933,
   56.3479,       979,
   56.3782,       998,
   56.4085,       994,
   56.4389,      1013,
   56.4692,      1054,
   56.4995,      1212,
   56.5299,      1120,
   56.5602,      1282,
   56.5905,      1376,
   56.6208,      1513,
   56.6512,      1730,
   56.6815,      2132,
   56.7118,      2610,
   56.7422,      3140,
   56.7725,      3003,
   56.8028,      2939,
   56.8331,      3068,
   56.8635,      3412,
   56.8938,      3217,
   56.9241,      2837,
   56.9544,      2382,
   56.9848,      2221,
   57.0151,      2212,
   57.0454,      2019,
   57.0758,      1714,
   57.1061,      1530,
   57.1364,      1341,
   57.1667,      1353,
   57.1971,      1277,
   57.2274,      1118,
   57.2577,      1040,
   57.2881,      1017,
   57.3184,       968,
   57.3487,       976,
    57.379,       981,
   57.4094,       917,
   57.4397,       926,
     57.47,       933,
   57.5004,       941,
   57.5307,       953,
    57.561,       960,
   57.5913,       950,
   57.6217,       944,
    57.652,      1000,
   57.6823,      1006,
   57.7127,      1033,
    57.743,      1020,
   57.7733,       965,
   57.8036,      1012,
    57.834,      1021,
   57.8643,      1049,
   57.8946,      1066,
    57.925,      1016,
   57.9553,       983,
   57.9856,      1029,
   58.0159,       984,
   58.0463,       966,
   58.0766,       940,
   58.1069,       927,
   58.1372,       864,
   58.1676,       892,
   58.1979,       864,
   58.2282,       858,
   58.2586,       810,
   58.2889,       800,
   58.3192,       801,
   58.3495,       777,
   58.3799,       751,
   58.4102,       739,
   58.4405,       741,
   58.4709,       747,
   58.5012,       767,
   58.5315,       787,
   58.5618,       768,
   58.5922,       792,
   58.6225,       769,
   58.6528,       827,
   58.6832,       794,
   58.7135,       807,
   58.7438,       796,
   58.7741,       814,
   58.8045,       810,
   58.8348,       845,
   58.8651,       905,
   58.8955,      1012,
   58.9258,      1205,
   58.9561,      1585,
   58.9864,      1939,
   59.0168,      2454,
   59.0471,      2577,
   59.0774,      2297,
   59.1077,      1957,
   59.1381,      1838,
   59.1684,      1816,
   59.1987,      1666,
   59.2291,      1334,
   59.2594,      1045,
   59.2897,       878,
     59.32,       837,
   59.3504,       709,
   59.3807,       680,
    59.411,       728,
   59.4414,       663,
   59.4717,       610,
    59.502,       583,
   59.5323,       597,
   59.5627,       565,
    59.593,       520,
   59.6233,       556,
   59.6537,       579,
    59.684,       554,
   59.7143,       555,
   59.7446,       559,
    59.775,       531,
   59.8053,       513,
   59.8356,       556,
    59.866,       576,
   59.8963,       540,
   59.9266,       544,
   59.9569,       536,
   59.9873,       522,
   60.0176,       524,
   60.0479,       534,
   60.0782,       477,
   60.1086,       522,
   60.1389,       489,
   60.1692,       467,
   60.1996,       446,
   60.2299,       462,
   60.2602,       441,
   60.2905,       403,
   60.3209,       428,
   60.3512,       448,
   60.3815,       428,
   60.4119,       441,
   60.4422,       429,
   60.4725,       449,
   60.5028,       399,
   60.5332,       403,
   60.5635,       429,
   60.5938,       413,
   60.6242,       443,
   60.6545,       425,
   60.6848,       387,
   60.7151,       413,
   60.7455,       447,
   60.7758,       412,
   60.8061,       412,
   60.8365,       407,
   60.8668,       421,
   60.8971,       435,
   60.9274,       430,
   60.9578,       477,
   60.9881,       432,
   61.0184,       546,
   61.0487,       556,
   61.0791,       614,
   61.1094,       614,
   61.1397,       606,
   61.1701,       544,
   61.2004,       557,
   61.2307,       585,
    61.261,       548,
   61.2914,       557,
   61.3217,       577,
    61.352,       525,
   61.3824,       537,
   61.4127,       521,
    61.443,       506,
   61.4733,       565,
   61.5037,       570,
    61.534,       663,
   61.5643,       767,
   61.5947,       910,
    61.625,      1172,
   61.6553,      1700,
   61.6856,      2158,
    61.716,      2523,
   61.7463,      2316,
   61.7766,      1872,
    61.807,      1682,
   61.8373,      1688,
   61.8676,      1727,
   61.8979,      1359,
   61.9283,      1104,
   61.9586,       898,
   61.9889,       729,
   62.0192,       664,
   62.0496,       656,
   62.0799,       670,
   62.1102,       613,
   62.1406,       646,
   62.1709,       668,
   62.2012,       719,
   62.2315,       795,
   62.2619,      1008,
   62.2922,      1130,
   62.3225,      1269,
   62.3529,      1377,
   62.3832,      1477,
   62.4135,      1520,
   62.4438,      1426,
   62.4742,      1208,
   62.5045,      1130,
   62.5348,      1075,
   62.5652,       978,
   62.5955,       840,
   62.6258,       753,
   62.6561,       607,
   62.6865,       529,
   62.7168,       526,
   62.7471,       459,
   62.7775,       469,
   62.8078,       424,
   62.8381,       405,
   62.8684,       425,
   62.8988,       406,
   62.9291,       413,
   62.9594,       370,
   62.9898,       385,
   63.0201,       372,
   63.0504,       410,
   63.0807,       365,
   63.1111,       402,
   63.1414,       407,
   63.1717,       380,
    63.202,       363,
   63.2324,       398,
   63.2627,       421,
    63.293,       397,
   63.3234,       410,
   63.3537,       361,
    63.384,       376,
   63.4143,       407,
   63.4447,       430,
    63.475,       460,
   63.5053,       476,
   63.5357,       539,
    63.566,       530,
   63.5963,       478,
   63.6266,       405,
    63.657,       455,
   63.6873,       474,
   63.7176,       433,
    63.748,       441,
   63.7783,       408,
   63.8086,       371,
   63.8389,       383,
   63.8693,       371,
   63.8996,       376,
   63.9299,       361,
   63.9603,       310,
   63.9906,       347,
   64.0209,       371,
   64.0512,       359,
   64.0816,       365,
   64.1119,       358,
   64.1422,       390,
   64.1725,       345,
   64.2029,       385,
   64.2332,       345,
   64.2635,       370,
   64.2939,       320,
   64.3242,       351,
   64.3545,       354,
   64.3848,       340,
   64.4152,       313,
   64.4455,       385,
   64.4758,       323,
   64.5062,       340,
   64.5365,       359,
   64.5668,       315,
   64.5971,       397,
   64.6275,       368,
   64.6578,       387,
   64.6881,       330,
   64.7185,       365,
   64.7488,       363,
   64.7791,       359,
   64.8094,       349,
   64.8398,       356,
   64.8701,       368,
   64.9004,       355,
   64.9308,       346,
   64.9611,       366,
   64.9914,       387,
   65.0217,       346,
   65.0521,       351,
   65.0824,       359,
   65.1127,       341,
    65.143,       395,
   65.1734,       348,
   65.2037,       346,
    65.234,       361,
   65.2644,       344,
   65.2947,       331,
    65.325,       360,
   65.3553,       375,
   65.3857,       320,
    65.416,       382,
   65.4463,       327,
   65.4767,       329,
    65.507,       353,
   65.5373,       361,
   65.5676,       358,
    65.598,       329,
   65.6283,       323,
   65.6586,       343,
    65.689,       326,
   65.7193,       364,
   65.7496,       351,
   65.7799,       331,
   65.8103,       344,
   65.8406,       362,
   65.8709,       364,
   65.9013,       354,
   65.9316,       343,
   65.9619,       367,
   65.9922,       344,
   66.0226,       358,
   66.0529,       351,
   66.0832,       379,
   66.1135,       423,
   66.1439,       431,
   66.1742,       455,
   66.2045,       494,
   66.2349,       538,
   66.2652,       469,
   66.2955,       467,
   66.3258,       436,
   66.3562,       463,
   66.3865,       454,
   66.4168,       445,
   66.4472,       437,
   66.4775,       392,
   66.5078,       452,
   66.5381,       448,
   66.5685,       409,
   66.5988,       374,
   66.6291,       408,
   66.6595,       421,
   66.6898,       416,
   66.7201,       403,
   66.7504,       388,
   66.7808,       434,
   66.8111,       463,
   66.8414,       445,
   66.8718,       441,
   66.9021,       444,
   66.9324,       413,
   66.9627,       464,
   66.9931,       467,
   67.0234,       537,
   67.0537,       495,
    67.084,       472,
   67.1144,       429,
   67.1447,       429,
    67.175,       454,
   67.2054,       455,
   67.2357,       401,
    67.266,       405,
   67.2963,       416,
   67.3267,       412,
    67.357,       416,
   67.3873,       400,
   67.4177,       428,
    67.448,       404,
   67.4783,       429,
   67.5086,       405,
    67.539,       378,
   67.5693,       384,
   67.5996,       428,
     67.63,       409,
   67.6603,       434,
   67.6906,       424,
   67.7209,       456,
   67.7513,       488,
   67.7816,       499,
   67.8119,       496,
   67.8423,       528,
   67.8726,       542,
   67.9029,       532,
   67.9332,       543,
   67.9636,       522,
   67.9939,       544,
   68.0242,       504,
   68.0546,       524,
   68.0849,       467,
   68.1152,       450,
   68.1455,       478,
   68.1759,       473,
   68.2062,       477,
   68.2365,       449,
   68.2668,       424,
   68.2972,       403,
   68.3275,       449,
   68.3578,       474,
   68.3882,       492,
   68.4185,       475,
   68.4488,       478,
   68.4791,       494,
   68.5095,       509,
   68.5398,       497,
   68.5701,       493,
   68.6005,       520,
   68.6308,       549,
   68.6611,       578,
   68.6914,       546,
   68.7218,       520,
   68.7521,       518,
   68.7824,       566,
   68.8128,       555,
   68.8431,       547,
   68.8734,       564,
   68.9037,       535,
   68.9341,       556,
   68.9644,       520,
   68.9947,       491,
   69.0251,       486,
   69.0554,       456,
   69.0857,       446,
    69.116,       454,
   69.1464,       505,
   69.1767,       499,
    69.207,       510,
   69.2373,       438,
   69.2677,       427,
    69.298,       468,
   69.3283,       443,
   69.3587,       488,
    69.389,       450,
   69.4193,       472,
   69.4496,       440,
     69.48,       437,
   69.5103,       396,
   69.5406,       449,
    69.571,       422,
   69.6013,       422,
   69.6316,       422,
   69.6619,       395,
   69.6923,       436,
   69.7226,       428,
   69.7529,       445,
   69.7833,       433,
   69.8136,       443,
   69.8439,       460,
   69.8742,       472,
   69.9046,       503,
   69.9349,       547,
   69.9652,       678,
   69.9956,       691,
