;RAW4.00
[RawHeader]
Date=04/20/2019
EstimatedTotalTime=2311.77
FurtherDQLReading=0
HardwareIndicator=65519
MeasuredTotalTime=2311.77
MeasurementFlag=1
NumberOfMeasuredRanges=1
NumberOfRanges=1
Time=17:09:39

[VarInfo]
Type=USER
Flags=0
Value=Bruker Service

[VarInfo]
Type=SAMPLEID
Flags=0
Value=Commander Sample ID

[VarInfo]
Type=COMMENT
Flags=0
Value=

[VarInfo]
Type=UTF
Flags=0
Value=

[VarInfo]
Type=CREATOR
Flags=0
Value=BrmlToV4Converter

[VarInfo]
Type=CREATOR_VERSION
Flags=0
Value=7.3.0.0

[HardwareConfiguration]
AbsorptionFactor=9999
ActivateAbsorber=0
Alpha1=1.78897
Alpha2=1.79285
AlphaAverage=1.79026
AlphaRatio=0.5
Analyzer=0
Anode=Co
AntiScatteringSlit=9999
BeamOpticsFlags=0
Beta=1.62079
BetaRelativeIntensity=0
DeactivateAbsorber=0
DetectorSlit=9999
DivergenceSlit=1
GoniometerControl=0
GoniometerDiameter=282
GoniometerModel=256
GoniometerStage=7
Monochromator=0
NearSampleSlit=9999
PrimarySollerSlit=9999
SampleChanger=0
SecondSollerSlit=9999
SynchronousAxis=0
ThinFilmAttachment=9999
WaveUnit=A

[RangeHeader]
ActuallyUsedLambda=1.79026
AdditionalDetectorMask=257
DataRecordLength=4
DelayTime=0
DisplayPlaneNumber=0
EstimatedScanTime=2312
ExtraParametersMask=0
GeneratorCurrent=10
GeneratorVoltage=30
Increment=0.0303281
Increment3=0
NumberOfCompletedData=2144
NumberOfCounts=1
NumberOfDetectors=0
NumberOfDrives=2
NumberOfEncoderDrives=0
NumberOfMeasuredData=2144
NumberOfVaryingParameters=0
RangeStartTime=0
RotationSpeed=1
ScanMode=1
ScanType=Locked Coupled
SimulatedMeasConditions=0
SlitChangerIn=0
SmootingWidth=0
Start=5.00234
Steps=2144
SynchronousRotation=0
Time=165

[VarInfo]
Type=PSD_DISCRIM
Flags=0
Value=0.11;0.25

[PSD]
ActualTwoTheta=9999
FirstUsedChannel=0
FixedPSD=0
PSDOpening=5.00414
PSDType=5

[Drive]
DriveFlags=1
DriveName=2Theta
DriveNumber=2
DriveOffset=0
OffsetIndex=0
OscillationAmplitude=0
OscillationSpeed=0
StartPosition=5.00234

[Drive]
DriveFlags=1
DriveName=Theta
DriveNumber=1
DriveOffset=0
OffsetIndex=0
OscillationAmplitude=0
OscillationSpeed=0
StartPosition=2.50117

[Data]
     Angle,       PSD,
   5.00234,      9147,
   5.03267,      9133,
     5.063,      8711,
   5.09333,      8835,
   5.12365,      8876,
   5.15398,      8527,
   5.18431,      8544,
   5.21464,      8520,
   5.24497,      8267,
   5.27529,      8220,
   5.30562,      7959,
   5.33595,      7963,
   5.36628,      7820,
   5.39661,      7679,
   5.42694,      7522,
   5.45726,      7249,
   5.48759,      7028,
   5.51792,      6784,
   5.54825,      6646,
   5.57858,      6441,
    5.6089,      6151,
   5.63923,      6273,
   5.66956,      5953,
   5.69989,      6029,
   5.73022,      5802,
   5.76055,      5798,
   5.79087,      5738,
    5.8212,      5701,
   5.85153,      5572,
   5.88186,      5468,
   5.91219,      5697,
   5.94251,      5371,
   5.97284,      5198,
   6.00317,      5207,
    6.0335,      5208,
   6.06383,      5125,
   6.09415,      5082,
   6.12448,      4942,
   6.15481,      4991,
   6.18514,      5003,
   6.21547,      4747,
    6.2458,      4764,
   6.27612,      4718,
   6.30645,      4739,
   6.33678,      4500,
   6.36711,      4543,
   6.39744,      4637,
   6.42776,      4495,
   6.45809,      4336,
   6.48842,      4201,
   6.51875,      4241,
   6.54908,      4257,
    6.5794,      4197,
   6.60973,      4110,
   6.64006,      3906,
   6.67039,      3952,
   6.70072,      3907,
   6.73105,      3923,
   6.76137,      3696,
    6.7917,      3757,
   6.82203,      3758,
   6.85236,      3709,
   6.88269,      3672,
   6.91301,      3608,
   6.94334,      3585,
   6.97367,      3570,
     7.004,      3451,
   7.03433,      3416,
   7.06466,      3475,
   7.09498,      3362,
   7.12531,      3361,
   7.15564,      3179,
   7.18597,      3318,
    7.2163,      3224,
   7.24662,      3290,
   7.27695,      3247,
   7.30728,      3178,
   7.33761,      3051,
   7.36794,      3027,
   7.39826,      2995,
   7.42859,      2936,
   7.45892,      3038,
   7.48925,      2853,
   7.51958,      2831,
   7.54991,      2811,
   7.58023,      2893,
   7.61056,      2807,
   7.64089,      2687,
   7.67122,      2713,
   7.70155,      2693,
   7.73187,      2753,
    7.7622,      2647,
   7.79253,      2566,
   7.82286,      2618,
   7.85319,      2634,
   7.88352,      2589,
   7.91384,      2648,
   7.94417,      2479,
    7.9745,      2526,
   8.00483,      2462,
   8.03516,      2524,
   8.06548,      2380,
   8.09581,      2247,
   8.12614,      2462,
   8.15647,      2302,
    8.1868,      2330,
   8.21712,      2352,
   8.24745,      2373,
   8.27778,      2326,
   8.30811,      2377,
   8.33844,      2199,
   8.36877,      2210,
   8.39909,      2228,
   8.42942,      2136,
   8.45975,      2152,
   8.49008,      2194,
   8.52041,      2169,
   8.55073,      2068,
   8.58106,      2130,
   8.61139,      2090,
   8.64172,      2013,
   8.67205,      2078,
   8.70237,      2045,
    8.7327,      1987,
   8.76303,      2048,
   8.79336,      1998,
   8.82369,      1950,
   8.85402,      1962,
   8.88434,      1982,
   8.91467,      1999,
     8.945,      1850,
   8.97533,      1984,
   9.00566,      1819,
   9.03598,      1868,
   9.06631,      1899,
   9.09664,      1909,
   9.12697,      1749,
    9.1573,      1768,
   9.18763,      1795,
   9.21795,      1774,
   9.24828,      1825,
   9.27861,      1748,
   9.30894,      1760,
   9.33927,      1716,
   9.36959,      1716,
   9.39992,      1737,
   9.43025,      1680,
   9.46058,      1682,
   9.49091,      1762,
   9.52123,      1651,
   9.55156,      1622,
   9.58189,      1664,
   9.61222,      1606,
   9.64255,      1659,
   9.67288,      1648,
    9.7032,      1596,
   9.73353,      1629,
   9.76386,      1602,
   9.79419,      1584,
   9.82452,      1481,
   9.85484,      1557,
   9.88517,      1580,
    9.9155,      1544,
   9.94583,      1493,
   9.97616,      1601,
   10.0065,      1557,
   10.0368,      1516,
   10.0671,      1546,
   10.0975,      1543,
   10.1278,      1578,
   10.1581,      1535,
   10.1885,      1561,
   10.2188,      1568,
   10.2491,      1503,
   10.2794,      1486,
   10.3098,      1446,
   10.3401,      1415,
   10.3704,      1426,
   10.4008,      1490,
   10.4311,      1498,
   10.4614,      1504,
   10.4917,      1424,
   10.5221,      1441,
   10.5524,      1441,
   10.5827,      1373,
    10.613,      1415,
   10.6434,      1413,
   10.6737,      1453,
    10.704,      1457,
   10.7344,      1394,
   10.7647,      1447,
    10.795,      1503,
   10.8253,      1414,
   10.8557,      1425,
    10.886,      1432,
   10.9163,      1430,
   10.9467,      1417,
    10.977,      1389,
   11.0073,      1400,
   11.0376,      1450,
    11.068,      1424,
   11.0983,      1404,
   11.1286,      1337,
    11.159,      1343,
   11.1893,      1284,
   11.2196,      1310,
   11.2499,      1353,
   11.2803,      1410,
   11.3106,      1340,
   11.3409,      1381,
   11.3713,      1340,
   11.4016,      1337,
   11.4319,      1338,
   11.4622,      1352,
   11.4926,      1331,
   11.5229,      1322,
   11.5532,      1375,
   11.5835,      1364,
   11.6139,      1312,
   11.6442,      1347,
   11.6745,      1319,
   11.7049,      1212,
   11.7352,      1333,
   11.7655,      1227,
   11.7958,      1285,
   11.8262,      1249,
   11.8565,      1296,
   11.8868,      1241,
   11.9172,      1341,
   11.9475,      1268,
   11.9778,      1279,
   12.0081,      1307,
   12.0385,      1313,
   12.0688,      1221,
   12.0991,      1223,
   12.1295,      1313,
   12.1598,      1207,
   12.1901,      1271,
   12.2204,      1230,
   12.2508,      1307,
   12.2811,      1332,
   12.3114,      1259,
   12.3418,      1202,
   12.3721,      1214,
   12.4024,      1187,
   12.4327,      1226,
   12.4631,      1212,
   12.4934,      1224,
   12.5237,      1211,
    12.554,      1245,
   12.5844,      1173,
   12.6147,      1187,
    12.645,      1203,
   12.6754,      1260,
   12.7057,      1221,
    12.736,      1158,
   12.7663,      1193,
   12.7967,      1215,
    12.827,      1204,
   12.8573,      1182,
   12.8877,      1232,
    12.918,      1158,
   12.9483,      1208,
   12.9786,      1205,
    13.009,      1098,
   13.0393,      1173,
   13.0696,      1141,
      13.1,      1150,
   13.1303,      1196,
   13.1606,      1211,
   13.1909,      1190,
   13.2213,      1130,
   13.2516,      1183,
   13.2819,      1171,
   13.3123,      1178,
   13.3426,      1219,
   13.3729,      1102,
   13.4032,      1160,
   13.4336,      1119,
   13.4639,      1190,
   13.4942,      1120,
   13.5245,      1127,
   13.5549,      1123,
   13.5852,      1136,
   13.6155,      1140,
   13.6459,      1164,
   13.6762,      1136,
   13.7065,      1075,
   13.7368,      1162,
   13.7672,      1091,
   13.7975,      1145,
   13.8278,      1121,
   13.8582,      1119,
   13.8885,      1109,
   13.9188,      1146,
   13.9491,      1121,
   13.9795,      1089,
   14.0098,      1072,
   14.0401,      1087,
   14.0705,      1140,
   14.1008,      1115,
   14.1311,      1053,
   14.1614,      1068,
   14.1918,      1120,
   14.2221,      1059,
   14.2524,      1070,
   14.2828,      1128,
   14.3131,      1132,
   14.3434,      1050,
   14.3737,      1103,
   14.4041,      1082,
   14.4344,      1125,
   14.4647,      1092,
   14.4951,      1077,
   14.5254,      1074,
   14.5557,      1090,
    14.586,      1078,
   14.6164,      1059,
   14.6467,      1051,
    14.677,      1012,
   14.7073,      1070,
   14.7377,      1092,
    14.768,      1058,
   14.7983,      1059,
   14.8287,      1046,
    14.859,      1076,
   14.8893,      1030,
   14.9196,      1067,
     14.95,       984,
   14.9803,      1134,
   15.0106,      1062,
    15.041,       974,
   15.0713,      1067,
   15.1016,      1054,
   15.1319,      1055,
   15.1623,       982,
   15.1926,      1011,
   15.2229,      1037,
   15.2533,      1008,
   15.2836,      1032,
   15.3139,      1030,
   15.3442,      1039,
   15.3746,      1029,
   15.4049,      1061,
   15.4352,      1043,
   15.4656,      1069,
   15.4959,      1013,
   15.5262,       999,
   15.5565,      1015,
   15.5869,      1009,
   15.6172,       959,
   15.6475,       977,
   15.6778,       953,
   15.7082,      1025,
   15.7385,      1030,
   15.7688,       991,
   15.7992,      1006,
   15.8295,       975,
   15.8598,       997,
   15.8901,      1006,
   15.9205,       998,
   15.9508,       988,
   15.9811,      1024,
   16.0115,       965,
   16.0418,      1015,
   16.0721,       940,
   16.1024,       980,
   16.1328,       959,
   16.1631,       953,
   16.1934,       955,
   16.2238,       988,
   16.2541,       985,
   16.2844,       915,
   16.3147,       958,
   16.3451,       989,
   16.3754,       960,
   16.4057,       886,
   16.4361,       952,
   16.4664,       948,
   16.4967,       936,
    16.527,       922,
   16.5574,       953,
   16.5877,       961,
    16.618,       978,
   16.6483,       919,
   16.6787,       906,
    16.709,      1028,
   16.7393,       883,
   16.7697,       948,
      16.8,       989,
   16.8303,       989,
   16.8606,       952,
    16.891,       960,
   16.9213,       972,
   16.9516,       958,
    16.982,       964,
   17.0123,       944,
   17.0426,       925,
   17.0729,       925,
   17.1033,       884,
   17.1336,       920,
   17.1639,       939,
   17.1943,       873,
   17.2246,      1033,
   17.2549,       907,
   17.2852,       923,
   17.3156,       872,
   17.3459,       870,
   17.3762,       881,
   17.4066,       850,
   17.4369,       896,
   17.4672,       992,
   17.4975,       982,
   17.5279,       945,
   17.5582,       871,
   17.5885,       966,
   17.6188,       916,
   17.6492,       934,
   17.6795,       918,
   17.7098,       940,
   17.7402,       878,
   17.7705,      1000,
   17.8008,       868,
   17.8311,       894,
   17.8615,       877,
   17.8918,       898,
   17.9221,       910,
   17.9525,       928,
   17.9828,       938,
   18.0131,       867,
   18.0434,       883,
   18.0738,       915,
   18.1041,       919,
   18.1344,       870,
   18.1648,       932,
   18.1951,       923,
   18.2254,       876,
   18.2557,       926,
   18.2861,       872,
   18.3164,       944,
   18.3467,       975,
   18.3771,       862,
   18.4074,       864,
   18.4377,       902,
    18.468,       904,
   18.4984,       950,
   18.5287,       896,
    18.559,       830,
   18.5893,       872,
   18.6197,       861,
     18.65,       842,
   18.6803,       883,
   18.7107,       890,
    18.741,       875,
   18.7713,       908,
   18.8016,       898,
    18.832,       926,
   18.8623,       875,
   18.8926,       870,
    18.923,       923,
   18.9533,       905,
   18.9836,       824,
   19.0139,       898,
   19.0443,       903,
   19.0746,       903,
   19.1049,       869,
   19.1353,       857,
   19.1656,       902,
   19.1959,       838,
   19.2262,       869,
   19.2566,       829,
   19.2869,       922,
   19.3172,       882,
   19.3476,       867,
   19.3779,       885,
   19.4082,       855,
   19.4385,       816,
   19.4689,       885,
   19.4992,       895,
   19.5295,       867,
   19.5599,       858,
   19.5902,       829,
   19.6205,       887,
   19.6508,       882,
   19.6812,       886,
   19.7115,       833,
   19.7418,       867,
   19.7721,       913,
   19.8025,       903,
   19.8328,       869,
   19.8631,       843,
   19.8935,       878,
   19.9238,       873,
   19.9541,       837,
   19.9844,       898,
   20.0148,       847,
   20.0451,       830,
   20.0754,       868,
   20.1058,       852,
   20.1361,       819,
   20.1664,       849,
   20.1967,       787,
   20.2271,       800,
   20.2574,       880,
   20.2877,       903,
   20.3181,       897,
   20.3484,       859,
   20.3787,       839,
    20.409,       840,
   20.4394,       823,
   20.4697,       847,
      20.5,       911,
   20.5304,       842,
   20.5607,       894,
    20.591,       864,
   20.6213,       832,
   20.6517,       912,
    20.682,       823,
   20.7123,       829,
   20.7426,       868,
    20.773,       849,
   20.8033,       888,
   20.8336,       841,
    20.864,       872,
   20.8943,       900,
   20.9246,       902,
   20.9549,       833,
   20.9853,       892,
   21.0156,       890,
   21.0459,       881,
   21.0763,       800,
   21.1066,       874,
   21.1369,       824,
   21.1672,       858,
   21.1976,       883,
   21.2279,       855,
   21.2582,       819,
   21.2886,       871,
   21.3189,       813,
   21.3492,       882,
   21.3795,       878,
   21.4099,       886,
   21.4402,       796,
   21.4705,       816,
   21.5009,       819,
   21.5312,       834,
   21.5615,       802,
   21.5918,       817,
   21.6222,       864,
   21.6525,       865,
   21.6828,       827,
   21.7131,       876,
   21.7435,       852,
   21.7738,       857,
   21.8041,       831,
   21.8345,       821,
   21.8648,       886,
   21.8951,       841,
   21.9254,       909,
   21.9558,       903,
   21.9861,       878,
   22.0164,       869,
   22.0468,       861,
   22.0771,       859,
   22.1074,       823,
   22.1377,       854,
   22.1681,       822,
   22.1984,       889,
   22.2287,       827,
   22.2591,       846,
   22.2894,       863,
   22.3197,       910,
     22.35,       813,
   22.3804,       776,
   22.4107,       888,
    22.441,       859,
   22.4714,       869,
   22.5017,       890,
    22.532,       844,
   22.5623,       833,
   22.5927,       855,
    22.623,       904,
   22.6533,       876,
   22.6836,       839,
    22.714,       907,
   22.7443,       854,
   22.7746,       858,
    22.805,       906,
   22.8353,       897,
   22.8656,       903,
   22.8959,       886,
   22.9263,       879,
   22.9566,       920,
   22.9869,       920,
   23.0173,       910,
   23.0476,       915,
   23.0779,       914,
   23.1082,       960,
   23.1386,       937,
   23.1689,       855,
   23.1992,       875,
   23.2296,       902,
   23.2599,       873,
   23.2902,       913,
   23.3205,       877,
   23.3509,       960,
   23.3812,       890,
   23.4115,       845,
   23.4419,       882,
   23.4722,       843,
   23.5025,       887,
   23.5328,       791,
   23.5632,       852,
   23.5935,       844,
   23.6238,       858,
   23.6541,       874,
   23.6845,       815,
   23.7148,       827,
   23.7451,       845,
   23.7755,       806,
   23.8058,       851,
   23.8361,       838,
   23.8664,       773,
   23.8968,       831,
   23.9271,       812,
   23.9574,       831,
   23.9878,       845,
   24.0181,       776,
   24.0484,       871,
   24.0787,       786,
   24.1091,       852,
   24.1394,       847,
   24.1697,       878,
   24.2001,       813,
   24.2304,       763,
   24.2607,       772,
    24.291,       839,
   24.3214,       813,
   24.3517,       834,
    24.382,       825,
   24.4124,       812,
   24.4427,       823,
    24.473,       812,
   24.5033,       862,
   24.5337,       898,
    24.564,       775,
   24.5943,       832,
   24.6246,       806,
    24.655,       829,
   24.6853,       792,
   24.7156,       824,
    24.746,       786,
   24.7763,       771,
   24.8066,       846,
   24.8369,       863,
   24.8673,       879,
   24.8976,       905,
   24.9279,       875,
   24.9583,      1001,
   24.9886,       970,
   25.0189,       913,
   25.0492,       826,
   25.0796,       825,
   25.1099,       738,
   25.1402,       732,
   25.1706,       793,
   25.2009,       841,
   25.2312,       781,
   25.2615,       807,
   25.2919,       791,
   25.3222,       736,
   25.3525,       774,
   25.3829,       750,
   25.4132,       715,
   25.4435,       722,
   25.4738,       715,
   25.5042,       749,
   25.5345,       748,
   25.5648,       724,
   25.5952,       775,
   25.6255,       744,
   25.6558,       695,
   25.6861,       727,
   25.7165,       789,
   25.7468,       757,
   25.7771,       766,
   25.8074,       740,
   25.8378,       703,
   25.8681,       716,
   25.8984,       714,
   25.9288,       754,
   25.9591,       743,
   25.9894,       691,
   26.0197,       766,
   26.0501,       772,
   26.0804,       712,
   26.1107,       700,
   26.1411,       739,
   26.1714,       715,
   26.2017,       685,
    26.232,       738,
   26.2624,       746,
   26.2927,       725,
    26.323,       740,
   26.3534,       688,
   26.3837,       698,
    26.414,       701,
   26.4443,       727,
   26.4747,       704,
    26.505,       702,
   26.5353,       709,
   26.5657,       763,
    26.596,       683,
   26.6263,       686,
   26.6566,       748,
    26.687,       737,
   26.7173,       656,
   26.7476,       709,
   26.7779,       755,
   26.8083,       717,
   26.8386,       733,
   26.8689,       710,
   26.8993,       712,
   26.9296,       710,
   26.9599,       722,
   26.9902,       716,
   27.0206,       785,
   27.0509,       772,
   27.0812,       857,
   27.1116,       846,
   27.1419,       951,
   27.1722,      1013,
   27.2025,       969,
   27.2329,       905,
   27.2632,       930,
   27.2935,       903,
   27.3239,       898,
   27.3542,       859,
   27.3845,       857,
   27.4148,       819,
   27.4452,       797,
   27.4755,       765,
   27.5058,       735,
   27.5362,       767,
   27.5665,       751,
   27.5968,       781,
   27.6271,       781,
   27.6575,       780,
   27.6878,       737,
   27.7181,       766,
   27.7484,       787,
   27.7788,       696,
   27.8091,       711,
   27.8394,       706,
   27.8698,       668,
   27.9001,       730,
   27.9304,       691,
   27.9607,       661,
   27.9911,       629,
   28.0214,       691,
   28.0517,       657,
   28.0821,       705,
   28.1124,       663,
   28.1427,       692,
    28.173,       631,
   28.2034,       662,
   28.2337,       710,
    28.264,       645,
   28.2944,       679,
   28.3247,       671,
    28.355,       658,
   28.3853,       626,
   28.4157,       690,
    28.446,       656,
   28.4763,       649,
   28.5067,       624,
    28.537,       644,
   28.5673,       604,
   28.5976,       612,
    28.628,       679,
   28.6583,       631,
   28.6886,       674,
   28.7189,       693,
   28.7493,       663,
   28.7796,       637,
   28.8099,       672,
   28.8403,       620,
   28.8706,       647,
   28.9009,       700,
   28.9312,       694,
   28.9616,       675,
   28.9919,       646,
   29.0222,       661,
   29.0526,       610,
   29.0829,       636,
   29.1132,       621,
   29.1435,       620,
   29.1739,       656,
   29.2042,       639,
   29.2345,       680,
   29.2649,       607,
   29.2952,       634,
   29.3255,       656,
   29.3558,       659,
   29.3862,       659,
   29.4165,       614,
   29.4468,       579,
   29.4772,       573,
   29.5075,       623,
   29.5378,       625,
   29.5681,       620,
   29.5985,       641,
   29.6288,       615,
   29.6591,       642,
   29.6894,       637,
   29.7198,       633,
   29.7501,       608,
   29.7804,       666,
   29.8108,       559,
   29.8411,       647,
   29.8714,       651,
   29.9017,       648,
   29.9321,       624,
   29.9624,       627,
   29.9927,       658,
   30.0231,       668,
   30.0534,       675,
   30.0837,       668,
    30.114,       641,
   30.1444,       680,
   30.1747,       765,
    30.205,       775,
   30.2354,       783,
   30.2657,       734,
    30.296,       842,
   30.3263,       887,
   30.3567,       916,
    30.387,      1075,
   30.4173,      1283,
   30.4477,      1552,
    30.478,      2129,
   30.5083,      2585,
   30.5386,      2867,
    30.569,      2746,
   30.5993,      2432,
   30.6296,      1806,
     30.66,      1460,
   30.6903,      1221,
   30.7206,       997,
   30.7509,       934,
   30.7813,       888,
   30.8116,       846,
   30.8419,       793,
   30.8722,       765,
   30.9026,       744,
   30.9329,       725,
   30.9632,       734,
   30.9936,       806,
   31.0239,       882,
   31.0542,       892,
   31.0845,       823,
   31.1149,       841,
   31.1452,       778,
   31.1755,       712,
   31.2059,       722,
   31.2362,       712,
   31.2665,       709,
   31.2968,       701,
   31.3272,       773,
   31.3575,       774,
   31.3878,       758,
   31.4182,       766,
   31.4485,       836,
   31.4788,       883,
   31.5091,       830,
   31.5395,       946,
   31.5698,       919,
   31.6001,      1024,
   31.6305,      1193,
   31.6608,      1381,
   31.6911,      1542,
   31.7214,      1619,
   31.7518,      1544,
   31.7821,      1278,
   31.8124,      1142,
   31.8427,       994,
   31.8731,       845,
   31.9034,       807,
   31.9337,       802,
   31.9641,       735,
   31.9944,       741,
   32.0247,       675,
    32.055,       660,
   32.0854,       639,
   32.1157,       661,
    32.146,       637,
   32.1764,       592,
   32.2067,       545,
    32.237,       570,
   32.2673,       564,
   32.2977,       610,
    32.328,       616,
   32.3583,       585,
   32.3887,       574,
    32.419,       579,
   32.4493,       576,
   32.4796,       629,
     32.51,       571,
   32.5403,       587,
   32.5706,       557,
    32.601,       558,
   32.6313,       569,
   32.6616,       525,
   32.6919,       546,
   32.7223,       561,
   32.7526,       557,
   32.7829,       536,
   32.8132,       515,
   32.8436,       574,
   32.8739,       530,
   32.9042,       490,
   32.9346,       554,
   32.9649,       543,
   32.9952,       587,
   33.0255,       488,
   33.0559,       552,
   33.0862,       532,
   33.1165,       521,
   33.1469,       545,
   33.1772,       516,
   33.2075,       521,
   33.2378,       521,
   33.2682,       542,
   33.2985,       508,
   33.3288,       537,
   33.3592,       576,
   33.3895,       559,
   33.4198,       508,
   33.4501,       578,
   33.4805,       533,
   33.5108,       559,
   33.5411,       582,
   33.5715,       524,
   33.6018,       545,
   33.6321,       543,
   33.6624,       534,
   33.6928,       501,
   33.7231,       512,
   33.7534,       532,
   33.7837,       553,
   33.8141,       510,
   33.8444,       541,
   33.8747,       551,
   33.9051,       557,
   33.9354,       525,
   33.9657,       560,
    33.996,       568,
   34.0264,       580,
   34.0567,       573,
    34.087,       557,
   34.1174,       604,
   34.1477,       600,
    34.178,       613,
   34.2083,       620,
   34.2387,       674,
    34.269,       693,
   34.2993,       865,
   34.3297,       863,
     34.36,       906,
   34.3903,       935,
   34.4206,       920,
    34.451,       954,
   34.4813,       981,
   34.5116,      1196,
    34.542,      1366,
   34.5723,      1442,
   34.6026,      1718,
   34.6329,      1883,
   34.6633,      2161,
   34.6936,      2420,
   34.7239,      2642,
   34.7542,      2787,
   34.7846,      2897,
   34.8149,      2905,
   34.8452,      2937,
   34.8756,      2756,
   34.9059,      2767,
   34.9362,      2543,
   34.9665,      2281,
   34.9969,      2158,
   35.0272,      1907,
   35.0575,      1602,
   35.0879,      1496,
   35.1182,      1365,
   35.1485,      1256,
   35.1788,      1094,
   35.2092,      1032,
   35.2395,       992,
   35.2698,       943,
   35.3002,       824,
   35.3305,       838,
   35.3608,       852,
   35.3911,       741,
   35.4215,       746,
   35.4518,       700,
   35.4821,       746,
   35.5125,       702,
   35.5428,       706,
   35.5731,       669,
   35.6034,       651,
   35.6338,       614,
   35.6641,       619,
   35.6944,       636,
   35.7248,       607,
   35.7551,       577,
   35.7854,       556,
   35.8157,       619,
   35.8461,       585,
   35.8764,       612,
   35.9067,       613,
    35.937,       595,
   35.9674,       673,
   35.9977,       622,
    36.028,       586,
   36.0584,       575,
   36.0887,       620,
    36.119,       548,
   36.1493,       549,
   36.1797,       551,
     36.21,       544,
   36.2403,       610,
   36.2707,       657,
    36.301,       540,
   36.3313,       572,
   36.3616,       599,
    36.392,       534,
   36.4223,       513,
   36.4526,       448,
    36.483,       512,
   36.5133,       507,
   36.5436,       536,
   36.5739,       538,
   36.6043,       507,
   36.6346,       505,
   36.6649,       471,
   36.6953,       508,
   36.7256,       500,
   36.7559,       531,
   36.7862,       471,
   36.8166,       517,
   36.8469,       524,
   36.8772,       501,
   36.9075,       586,
   36.9379,       647,
   36.9682,       766,
   36.9985,       812,
   37.0289,       776,
   37.0592,       765,
   37.0895,       686,
   37.1198,       572,
   37.1502,       606,
   37.1805,       556,
   37.2108,       502,
   37.2412,       534,
   37.2715,       507,
   37.3018,       515,
   37.3321,       504,
   37.3625,       510,
   37.3928,       499,
   37.4231,       512,
   37.4535,       454,
   37.4838,       493,
   37.5141,       489,
   37.5444,       452,
   37.5748,       493,
   37.6051,       479,
   37.6354,       460,
   37.6658,       514,
   37.6961,       508,
   37.7264,       483,
   37.7567,       414,
   37.7871,       490,
   37.8174,       507,
   37.8477,       504,
    37.878,       508,
   37.9084,       474,
   37.9387,       518,
    37.969,       502,
   37.9994,       506,
   38.0297,       531,
     38.06,       532,
   38.0903,       550,
   38.1207,       551,
    38.151,       593,
   38.1813,       618,
   38.2117,       583,
    38.242,       576,
   38.2723,       634,
   38.3026,       642,
    38.333,       573,
   38.3633,       636,
   38.3936,       547,
    38.424,       540,
   38.4543,       634,
   38.4846,       688,
   38.5149,       672,
   38.5453,       841,
   38.5756,      1062,
   38.6059,      1254,
   38.6363,      1334,
   38.6666,      1313,
   38.6969,      1180,
   38.7272,      1094,
   38.7576,       864,
   38.7879,       782,
   38.8182,       648,
   38.8485,       639,
   38.8789,       571,
   38.9092,       522,
   38.9395,       549,
   38.9699,       507,
   39.0002,       465,
   39.0305,       465,
   39.0608,       498,
   39.0912,       509,
   39.1215,       427,
   39.1518,       472,
   39.1822,       462,
   39.2125,       468,
   39.2428,       402,
   39.2731,       438,
   39.3035,       433,
   39.3338,       482,
   39.3641,       443,
   39.3945,       432,
   39.4248,       457,
   39.4551,       445,
   39.4854,       399,
   39.5158,       422,
   39.5461,       398,
   39.5764,       415,
   39.6068,       457,
   39.6371,       458,
   39.6674,       468,
   39.6977,       441,
   39.7281,       408,
   39.7584,       444,
   39.7887,       417,
    39.819,       420,
   39.8494,       453,
   39.8797,       481,
     39.91,       453,
   39.9404,       470,
   39.9707,       466,
    40.001,       433,
   40.0313,       464,
   40.0617,       445,
    40.092,       436,
   40.1223,       442,
   40.1527,       445,
    40.183,       409,
   40.2133,       459,
   40.2436,       490,
    40.274,       484,
   40.3043,       477,
   40.3346,       451,
    40.365,       450,
   40.3953,       473,
   40.4256,       417,
   40.4559,       474,
   40.4863,       483,
   40.5166,       516,
   40.5469,       497,
   40.5773,       471,
   40.6076,       459,
   40.6379,       493,
   40.6682,       486,
   40.6986,       433,
   40.7289,       476,
   40.7592,       438,
   40.7895,       421,
   40.8199,       479,
   40.8502,       474,
   40.8805,       452,
   40.9109,       448,
   40.9412,       438,
   40.9715,       455,
   41.0018,       447,
   41.0322,       449,
   41.0625,       491,
   41.0928,       449,
   41.1232,       444,
   41.1535,       449,
   41.1838,       456,
   41.2141,       470,
   41.2445,       442,
   41.2748,       406,
   41.3051,       470,
   41.3355,       466,
   41.3658,       441,
   41.3961,       456,
   41.4264,       433,
   41.4568,       463,
   41.4871,       431,
   41.5174,       443,
   41.5478,       448,
   41.5781,       467,
   41.6084,       432,
   41.6387,       421,
   41.6691,       461,
   41.6994,       451,
   41.7297,       492,
   41.7601,       488,
   41.7904,       491,
   41.8207,       512,
    41.851,       501,
   41.8814,       547,
   41.9117,       519,
    41.942,       553,
   41.9723,       614,
   42.0027,       595,
    42.033,       603,
   42.0633,       731,
   42.0937,       825,
    42.124,       929,
   42.1543,       930,
   42.1846,       918,
    42.215,       966,
   42.2453,       951,
   42.2756,       951,
    42.306,       864,
   42.3363,       791,
   42.3666,       756,
   42.3969,       744,
   42.4273,       737,
   42.4576,       713,
   42.4879,       677,
   42.5183,       765,
   42.5486,       719,
   42.5789,       726,
   42.6092,       742,
   42.6396,       718,
   42.6699,       687,
   42.7002,       699,
   42.7306,       704,
   42.7609,       657,
   42.7912,       629,
   42.8215,       572,
   42.8519,       589,
   42.8822,       585,
   42.9125,       548,
   42.9428,       533,
   42.9732,       504,
   43.0035,       505,
   43.0338,       545,
   43.0642,       472,
   43.0945,       429,
   43.1248,       498,
   43.1551,       443,
   43.1855,       448,
   43.2158,       454,
   43.2461,       492,
   43.2765,       495,
   43.3068,       473,
   43.3371,       456,
   43.3674,       479,
   43.3978,       481,
   43.4281,       499,
   43.4584,       579,
   43.4888,       609,
   43.5191,       628,
   43.5494,       588,
   43.5797,       607,
   43.6101,       592,
   43.6404,       600,
   43.6707,       577,
   43.7011,       549,
   43.7314,       526,
   43.7617,       495,
    43.792,       450,
   43.8224,       455,
   43.8527,       474,
    43.883,       487,
   43.9133,       468,
   43.9437,       468,
    43.974,       477,
   44.0043,       485,
   44.0347,       518,
    44.065,       476,
   44.0953,       514,
   44.1256,       611,
    44.156,       639,
   44.1863,       775,
   44.2166,       897,
    44.247,      1058,
   44.2773,      1043,
   44.3076,       955,
   44.3379,       891,
   44.3683,       799,
   44.3986,       753,
   44.4289,       579,
   44.4593,       536,
   44.4896,       573,
   44.5199,       583,
   44.5502,       540,
   44.5806,       492,
   44.6109,       514,
   44.6412,       489,
   44.6716,       467,
   44.7019,       541,
   44.7322,       520,
   44.7625,       558,
   44.7929,       596,
   44.8232,       642,
   44.8535,       718,
   44.8838,       777,
   44.9142,       773,
   44.9445,       715,
   44.9748,       709,
   45.0052,       722,
   45.0355,       752,
   45.0658,       700,
   45.0961,       765,
   45.1265,       715,
   45.1568,       733,
   45.1871,       673,
   45.2175,       637,
   45.2478,       535,
   45.2781,       522,
   45.3084,       515,
   45.3388,       466,
   45.3691,       461,
   45.3994,       470,
   45.4298,       429,
   45.4601,       385,
   45.4904,       374,
   45.5207,       401,
   45.5511,       423,
   45.5814,       412,
   45.6117,       393,
   45.6421,       382,
   45.6724,       406,
   45.7027,       386,
    45.733,       395,
   45.7634,       394,
   45.7937,       409,
    45.824,       371,
   45.8543,       387,
   45.8847,       376,
    45.915,       401,
   45.9453,       419,
   45.9757,       434,
    46.006,       380,
   46.0363,       396,
   46.0666,       378,
    46.097,       384,
   46.1273,       420,
   46.1576,       442,
    46.188,       445,
   46.2183,       422,
   46.2486,       449,
   46.2789,       418,
   46.3093,       414,
   46.3396,       400,
   46.3699,       415,
   46.4003,       449,
   46.4306,       449,
   46.4609,       477,
   46.4912,       514,
   46.5216,       493,
   46.5519,       543,
   46.5822,       555,
   46.6126,       623,
   46.6429,       619,
   46.6732,       669,
   46.7035,       648,
   46.7339,       673,
   46.7642,       683,
   46.7945,       685,
   46.8249,       719,
   46.8552,       714,
   46.8855,       650,
   46.9158,       612,
   46.9462,       669,
   46.9765,       591,
   47.0068,       596,
   47.0371,       635,
   47.0675,       625,
   47.0978,       532,
   47.1281,       510,
   47.1585,       489,
   47.1888,       459,
   47.2191,       466,
   47.2494,       408,
   47.2798,       424,
   47.3101,       440,
   47.3404,       436,
   47.3708,       393,
   47.4011,       457,
   47.4314,       434,
   47.4617,       419,
   47.4921,       434,
   47.5224,       399,
   47.5527,       434,
   47.5831,       402,
   47.6134,       415,
   47.6437,       418,
    47.674,       412,
   47.7044,       406,
   47.7347,       413,
    47.765,       346,
   47.7954,       377,
   47.8257,       431,
    47.856,       399,
   47.8863,       407,
   47.9167,       403,
    47.947,       399,
   47.9773,       394,
   48.0076,       471,
    48.038,       425,
   48.0683,       454,
   48.0986,       444,
    48.129,       463,
   48.1593,       521,
   48.1896,       556,
   48.2199,       523,
   48.2503,       508,
   48.2806,       519,
   48.3109,       510,
   48.3413,       489,
   48.3716,       431,
   48.4019,       421,
   48.4322,       428,
   48.4626,       416,
   48.4929,       367,
   48.5232,       399,
   48.5536,       382,
   48.5839,       386,
   48.6142,       361,
   48.6445,       384,
   48.6749,       374,
   48.7052,       357,
   48.7355,       369,
   48.7659,       380,
   48.7962,       332,
   48.8265,       383,
   48.8568,       350,
   48.8872,       360,
   48.9175,       347,
   48.9478,       360,
   48.9781,       377,
   49.0085,       352,
   49.0388,       392,
   49.0691,       360,
   49.0995,       376,
   49.1298,       363,
   49.1601,       356,
   49.1904,       352,
   49.2208,       383,
   49.2511,       407,
   49.2814,       351,
   49.3118,       358,
   49.3421,       341,
   49.3724,       343,
   49.4027,       347,
   49.4331,       368,
   49.4634,       378,
   49.4937,       340,
   49.5241,       361,
   49.5544,       339,
   49.5847,       365,
    49.615,       316,
   49.6454,       363,
   49.6757,       374,
    49.706,       360,
   49.7364,       361,
   49.7667,       363,
    49.797,       365,
   49.8273,       364,
   49.8577,       387,
    49.888,       370,
   49.9183,       360,
   49.9486,       352,
    49.979,       371,
   50.0093,       367,
   50.0396,       379,
     50.07,       394,
   50.1003,       412,
   50.1306,       475,
   50.1609,       477,
   50.1913,       510,
   50.2216,       575,
   50.2519,       573,
   50.2823,       630,
   50.3126,       567,
   50.3429,       569,
   50.3732,       524,
   50.4036,       485,
   50.4339,       448,
   50.4642,       419,
   50.4946,       393,
   50.5249,       408,
   50.5552,       400,
   50.5855,       395,
   50.6159,       395,
   50.6462,       387,
   50.6765,       429,
   50.7069,       429,
   50.7372,       408,
   50.7675,       423,
   50.7978,       380,
   50.8282,       352,
   50.8585,       402,
   50.8888,       388,
   50.9191,       416,
   50.9495,       448,
   50.9798,       401,
   51.0101,       433,
   51.0405,       469,
   51.0708,       519,
   51.1011,       502,
   51.1314,       509,
   51.1618,       530,
   51.1921,       540,
   51.2224,       536,
   51.2528,       605,
   51.2831,       582,
   51.3134,       619,
   51.3437,       612,
   51.3741,       577,
   51.4044,       554,
   51.4347,       601,
   51.4651,       550,
   51.4954,       513,
   51.5257,       526,
    51.556,       520,
   51.5864,       505,
   51.6167,       450,
    51.647,       434,
   51.6774,       442,
   51.7077,       401,
    51.738,       456,
   51.7683,       429,
   51.7987,       413,
    51.829,       414,
   51.8593,       398,
   51.8897,       415,
     51.92,       372,
   51.9503,       390,
   51.9806,       383,
    52.011,       347,
   52.0413,       364,
   52.0716,       391,
   52.1019,       357,
   52.1323,       357,
   52.1626,       349,
   52.1929,       339,
   52.2233,       364,
   52.2536,       413,
   52.2839,       373,
   52.3142,       378,
   52.3446,       386,
   52.3749,       333,
   52.4052,       382,
   52.4356,       364,
   52.4659,       345,
   52.4962,       360,
   52.5265,       374,
   52.5569,       357,
   52.5872,       349,
   52.6175,       398,
   52.6479,       384,
   52.6782,       375,
   52.7085,       416,
   52.7388,       397,
   52.7692,       360,
   52.7995,       346,
   52.8298,       349,
   52.8602,       361,
   52.8905,       380,
   52.9208,       345,
   52.9511,       376,
   52.9815,       343,
   53.0118,       374,
   53.0421,       381,
   53.0724,       386,
   53.1028,       376,
   53.1331,       402,
   53.1634,       413,
   53.1938,       391,
   53.2241,       411,
   53.2544,       459,
   53.2847,       479,
   53.3151,       538,
   53.3454,       515,
   53.3757,       477,
   53.4061,       527,
   53.4364,       505,
   53.4667,       516,
    53.497,       507,
   53.5274,       492,
   53.5577,       498,
    53.588,       540,
   53.6184,       596,
   53.6487,       692,
    53.679,       752,
   53.7093,       928,
   53.7397,      1118,
     53.77,      1247,
   53.8003,      1121,
   53.8307,      1014,
    53.861,       940,
   53.8913,       910,
   53.9216,       747,
    53.952,       694,
   53.9823,       623,
   54.0126,       523,
   54.0429,       501,
   54.0733,       440,
   54.1036,       444,
   54.1339,       401,
   54.1643,       440,
   54.1946,       408,
   54.2249,       404,
   54.2552,       355,
   54.2856,       386,
   54.3159,       380,
   54.3462,       395,
   54.3766,       367,
   54.4069,       366,
   54.4372,       373,
   54.4675,       366,
   54.4979,       354,
   54.5282,       341,
   54.5585,       366,
   54.5889,       387,
   54.6192,       349,
   54.6495,       408,
   54.6798,       379,
   54.7102,       356,
   54.7405,       353,
   54.7708,       357,
   54.8012,       339,
   54.8315,       378,
   54.8618,       371,
   54.8921,       345,
   54.9225,       363,
   54.9528,       342,
   54.9831,       365,
   55.0134,       281,
   55.0438,       329,
   55.0741,       352,
   55.1044,       365,
   55.1348,       376,
   55.1651,       366,
   55.1954,       361,
   55.2257,       383,
   55.2561,       329,
   55.2864,       344,
   55.3167,       364,
   55.3471,       347,
   55.3774,       361,
   55.4077,       345,
    55.438,       337,
   55.4684,       381,
   55.4987,       377,
    55.529,       347,
   55.5594,       362,
   55.5897,       358,
     55.62,       326,
   55.6503,       390,
   55.6807,       393,
    55.711,       377,
   55.7413,       358,
   55.7717,       381,
    55.802,       416,
   55.8323,       412,
   55.8626,       401,
    55.893,       454,
   55.9233,       431,
   55.9536,       458,
   55.9839,       474,
   56.0143,       451,
   56.0446,       428,
   56.0749,       480,
   56.1053,       448,
   56.1356,       452,
   56.1659,       483,
   56.1962,       488,
   56.2266,       504,
   56.2569,       484,
   56.2872,       533,
   56.3176,       528,
   56.3479,       542,
   56.3782,       534,
   56.4085,       574,
   56.4389,       587,
   56.4692,       578,
   56.4995,       593,
   56.5299,       600,
   56.5602,       627,
   56.5905,       638,
   56.6208,       704,
   56.6512,       719,
   56.6815,       796,
   56.7118,       841,
   56.7422,       849,
   56.7725,       812,
   56.8028,       875,
   56.8331,       864,
   56.8635,       863,
   56.8938,       820,
   56.9241,       733,
   56.9544,       693,
   56.9848,       691,
   57.0151,       661,
   57.0454,       592,
   57.0758,       585,
   57.1061,       594,
   57.1364,       518,
   57.1667,       536,
   57.1971,       544,
   57.2274,       467,
   57.2577,       478,
   57.2881,       480,
   57.3184,       497,
   57.3487,       510,
    57.379,       477,
   57.4094,       477,
   57.4397,       474,
     57.47,       460,
   57.5004,       491,
   57.5307,       449,
    57.561,       520,
   57.5913,       521,
   57.6217,       503,
    57.652,       499,
   57.6823,       527,
   57.7127,       530,
    57.743,       539,
   57.7733,       563,
   57.8036,       566,
    57.834,       557,
   57.8643,       578,
   57.8946,       617,
    57.925,       534,
   57.9553,       545,
   57.9856,       528,
   58.0159,       503,
   58.0463,       529,
   58.0766,       521,
   58.1069,       499,
   58.1372,       500,
   58.1676,       477,
   58.1979,       495,
   58.2282,       486,
   58.2586,       490,
   58.2889,       447,
   58.3192,       425,
   58.3495,       406,
   58.3799,       441,
   58.4102,       405,
   58.4405,       439,
   58.4709,       389,
   58.5012,       440,
   58.5315,       417,
   58.5618,       417,
   58.5922,       422,
   58.6225,       451,
   58.6528,       389,
   58.6832,       401,
   58.7135,       416,
   58.7438,       421,
   58.7741,       434,
   58.8045,       427,
   58.8348,       465,
   58.8651,       467,
   58.8955,       520,
   58.9258,       489,
   58.9561,       557,
   58.9864,       619,
   59.0168,       608,
   59.0471,       578,
   59.0774,       598,
   59.1077,       557,
   59.1381,       499,
   59.1684,       509,
   59.1987,       454,
   59.2291,       461,
   59.2594,       401,
   59.2897,       406,
     59.32,       385,
   59.3504,       385,
   59.3807,       346,
    59.411,       377,
   59.4414,       360,
   59.4717,       395,
    59.502,       367,
   59.5323,       318,
   59.5627,       373,
    59.593,       343,
   59.6233,       369,
   59.6537,       363,
    59.684,       385,
   59.7143,       377,
   59.7446,       465,
    59.775,       452,
   59.8053,       413,
   59.8356,       439,
    59.866,       409,
   59.8963,       397,
   59.9266,       402,
   59.9569,       387,
   59.9873,       388,
   60.0176,       361,
   60.0479,       369,
   60.0782,       351,
   60.1086,       345,
   60.1389,       309,
   60.1692,       298,
   60.1996,       343,
   60.2299,       319,
   60.2602,       321,
   60.2905,       367,
   60.3209,       317,
   60.3512,       329,
   60.3815,       334,
   60.4119,       310,
   60.4422,       311,
   60.4725,       332,
   60.5028,       293,
   60.5332,       319,
   60.5635,       309,
   60.5938,       328,
   60.6242,       290,
   60.6545,       314,
   60.6848,       307,
   60.7151,       323,
   60.7455,       320,
   60.7758,       290,
   60.8061,       312,
   60.8365,       335,
   60.8668,       310,
   60.8971,       310,
   60.9274,       324,
   60.9578,       303,
   60.9881,       324,
   61.0184,       331,
   61.0487,       331,
   61.0791,       295,
   61.1094,       328,
   61.1397,       324,
   61.1701,       343,
   61.2004,       288,
   61.2307,       330,
    61.261,       317,
   61.2914,       303,
   61.3217,       319,
    61.352,       326,
   61.3824,       314,
   61.4127,       343,
    61.443,       313,
   61.4733,       365,
   61.5037,       337,
    61.534,       374,
   61.5643,       380,
   61.5947,       466,
    61.625,       530,
   61.6553,       570,
   61.6856,       607,
    61.716,       598,
   61.7463,       535,
   61.7766,       511,
    61.807,       500,
   61.8373,       499,
   61.8676,       470,
   61.8979,       411,
   61.9283,       386,
   61.9586,       377,
   61.9889,       366,
   62.0192,       376,
   62.0496,       326,
   62.0799,       371,
   62.1102,       347,
   62.1406,       375,
   62.1709,       377,
   62.2012,       378,
   62.2315,       408,
   62.2619,       411,
   62.2922,       388,
   62.3225,       424,
   62.3529,       459,
   62.3832,       441,
   62.4135,       461,
   62.4438,       422,
   62.4742,       437,
   62.5045,       383,
   62.5348,       382,
   62.5652,       353,
   62.5955,       342,
   62.6258,       351,
   62.6561,       324,
   62.6865,       314,
   62.7168,       308,
   62.7471,       306,
   62.7775,       299,
   62.8078,       273,
   62.8381,       281,
   62.8684,       261,
   62.8988,       280,
   62.9291,       256,
   62.9594,       292,
   62.9898,       256,
   63.0201,       272,
   63.0504,       272,
   63.0807,       287,
   63.1111,       248,
   63.1414,       292,
   63.1717,       250,
    63.202,       286,
   63.2324,       277,
   63.2627,       334,
    63.293,       271,
   63.3234,       272,
   63.3537,       295,
    63.384,       271,
   63.4143,       280,
   63.4447,       288,
    63.475,       271,
   63.5053,       301,
   63.5357,       291,
    63.566,       277,
   63.5963,       334,
   63.6266,       293,
    63.657,       301,
   63.6873,       270,
   63.7176,       275,
    63.748,       289,
   63.7783,       263,
   63.8086,       274,
   63.8389,       255,
   63.8693,       267,
   63.8996,       275,
   63.9299,       260,
   63.9603,       259,
   63.9906,       291,
   64.0209,       290,
   64.0512,       252,
   64.0816,       272,
   64.1119,       272,
   64.1422,       266,
   64.1725,       291,
   64.2029,       263,
   64.2332,       269,
   64.2635,       253,
   64.2939,       302,
   64.3242,       255,
   64.3545,       242,
   64.3848,       264,
   64.4152,       258,
   64.4455,       254,
   64.4758,       243,
   64.5062,       253,
   64.5365,       243,
   64.5668,       229,
   64.5971,       256,
   64.6275,       252,
   64.6578,       228,
   64.6881,       257,
   64.7185,       258,
   64.7488,       246,
   64.7791,       256,
   64.8094,       247,
   64.8398,       265,
   64.8701,       248,
   64.9004,       252,
   64.9308,       255,
   64.9611,       239,
   64.9914,       233,
   65.0217,       221,
   65.0521,       254,
   65.0824,       246,
   65.1127,       275,
    65.143,       271,
   65.1734,       274,
   65.2037,       240,
    65.234,       242,
   65.2644,       277,
   65.2947,       244,
    65.325,       232,
   65.3553,       268,
   65.3857,       255,
    65.416,       247,
   65.4463,       259,
   65.4767,       242,
    65.507,       275,
   65.5373,       267,
   65.5676,       235,
    65.598,       267,
   65.6283,       284,
   65.6586,       262,
    65.689,       272,
   65.7193,       251,
   65.7496,       255,
   65.7799,       242,
   65.8103,       243,
   65.8406,       269,
   65.8709,       249,
   65.9013,       224,
   65.9316,       271,
   65.9619,       264,
   65.9922,       275,
   66.0226,       247,
   66.0529,       235,
   66.0832,       268,
   66.1135,       268,
   66.1439,       233,
   66.1742,       271,
   66.2045,       233,
   66.2349,       272,
   66.2652,       262,
   66.2955,       231,
   66.3258,       272,
   66.3562,       262,
   66.3865,       254,
   66.4168,       267,
   66.4472,       273,
   66.4775,       235,
   66.5078,       255,
   66.5381,       257,
   66.5685,       247,
   66.5988,       270,
   66.6291,       261,
   66.6595,       267,
   66.6898,       275,
   66.7201,       276,
   66.7504,       269,
   66.7808,       274,
   66.8111,       262,
   66.8414,       253,
   66.8718,       249,
   66.9021,       290,
   66.9324,       278,
   66.9627,       278,
   66.9931,       266,
   67.0234,       274,
   67.0537,       251,
    67.084,       252,
   67.1144,       257,
   67.1447,       263,
    67.175,       262,
   67.2054,       238,
   67.2357,       221,
    67.266,       260,
   67.2963,       278,
   67.3267,       249,
    67.357,       254,
   67.3873,       267,
   67.4177,       275,
    67.448,       252,
   67.4783,       259,
   67.5086,       242,
    67.539,       269,
   67.5693,       295,
   67.5996,       272,
     67.63,       220,
   67.6603,       282,
   67.6906,       263,
   67.7209,       251,
   67.7513,       273,
   67.7816,       267,
   67.8119,       306,
   67.8423,       281,
   67.8726,       287,
   67.9029,       258,
   67.9332,       250,
   67.9636,       275,
   67.9939,       251,
   68.0242,       232,
   68.0546,       267,
   68.0849,       250,
   68.1152,       242,
   68.1455,       256,
   68.1759,       262,
   68.2062,       240,
   68.2365,       283,
   68.2668,       243,
   68.2972,       230,
   68.3275,       256,
   68.3578,       267,
   68.3882,       275,
   68.4185,       271,
   68.4488,       252,
   68.4791,       290,
   68.5095,       287,
   68.5398,       267,
   68.5701,       314,
   68.6005,       295,
   68.6308,       310,
   68.6611,       284,
   68.6914,       282,
   68.7218,       269,
   68.7521,       356,
   68.7824,       289,
   68.8128,       282,
   68.8431,       309,
   68.8734,       304,
   68.9037,       309,
   68.9341,       293,
   68.9644,       257,
   68.9947,       274,
   69.0251,       312,
   69.0554,       279,
   69.0857,       335,
    69.116,       287,
   69.1464,       277,
   69.1767,       270,
    69.207,       271,
   69.2373,       255,
   69.2677,       272,
    69.298,       247,
   69.3283,       273,
   69.3587,       261,
    69.389,       280,
   69.4193,       289,
   69.4496,       259,
     69.48,       244,
   69.5103,       246,
   69.5406,       243,
    69.571,       249,
   69.6013,       245,
   69.6316,       255,
   69.6619,       255,
   69.6923,       243,
   69.7226,       255,
   69.7529,       251,
   69.7833,       221,
   69.8136,       245,
   69.8439,       242,
   69.8742,       256,
   69.9046,       259,
   69.9349,       264,
   69.9652,       267,
   69.9956,       283,
