;RAW4.00
[RawHeader]
Date=04/20/2019
EstimatedTotalTime=2311.24
FurtherDQLReading=0
HardwareIndicator=65519
MeasuredTotalTime=2311.24
MeasurementFlag=1
NumberOfMeasuredRanges=1
NumberOfRanges=1
Time=17:58:11

[VarInfo]
Type=USER
Flags=0
Value=Bruker Service

[VarInfo]
Type=SAMPLEID
Flags=0
Value=Commander Sample ID

[VarInfo]
Type=COMMENT
Flags=0
Value=

[VarInfo]
Type=UTF
Flags=0
Value=

[VarInfo]
Type=CREATOR
Flags=0
Value=BrmlToV4Converter

[VarInfo]
Type=CREATOR_VERSION
Flags=0
Value=7.3.0.0

[HardwareConfiguration]
AbsorptionFactor=9999
ActivateAbsorber=0
Alpha1=1.78897
Alpha2=1.79285
AlphaAverage=1.79026
AlphaRatio=0.5
Analyzer=0
Anode=Co
AntiScatteringSlit=9999
BeamOpticsFlags=0
Beta=1.62079
BetaRelativeIntensity=0
DeactivateAbsorber=0
DetectorSlit=9999
DivergenceSlit=1
GoniometerControl=0
GoniometerDiameter=282
GoniometerModel=256
GoniometerStage=7
Monochromator=0
NearSampleSlit=9999
PrimarySollerSlit=9999
SampleChanger=0
SecondSollerSlit=9999
SynchronousAxis=0
ThinFilmAttachment=9999
WaveUnit=A

[RangeHeader]
ActuallyUsedLambda=1.79026
AdditionalDetectorMask=257
DataRecordLength=4
DelayTime=0
DisplayPlaneNumber=0
EstimatedScanTime=2311
ExtraParametersMask=0
GeneratorCurrent=10
GeneratorVoltage=30
Increment=0.0303281
Increment3=0
NumberOfCompletedData=2144
NumberOfCounts=1
NumberOfDetectors=0
NumberOfDrives=2
NumberOfEncoderDrives=0
NumberOfMeasuredData=2144
NumberOfVaryingParameters=0
RangeStartTime=0
RotationSpeed=1
ScanMode=1
ScanType=Locked Coupled
SimulatedMeasConditions=0
SlitChangerIn=0
SmootingWidth=0
Start=5.00234
Steps=2144
SynchronousRotation=0
Time=165

[VarInfo]
Type=PSD_DISCRIM
Flags=0
Value=0.11;0.25

[PSD]
ActualTwoTheta=9999
FirstUsedChannel=0
FixedPSD=0
PSDOpening=5.00414
PSDType=5

[Drive]
DriveFlags=1
DriveName=2Theta
DriveNumber=2
DriveOffset=0
OffsetIndex=0
OscillationAmplitude=0
OscillationSpeed=0
StartPosition=5.00234

[Drive]
DriveFlags=1
DriveName=Theta
DriveNumber=1
DriveOffset=0
OffsetIndex=0
OscillationAmplitude=0
OscillationSpeed=0
StartPosition=2.50117

[Data]
     Angle,       PSD,
   5.00234,      8341,
   5.03267,      8585,
     5.063,      8058,
   5.09333,      8176,
   5.12365,      7889,
   5.15398,      7909,
   5.18431,      7606,
   5.21464,      7553,
   5.24497,      7530,
   5.27529,      7410,
   5.30562,      7273,
   5.33595,      7131,
   5.36628,      6987,
   5.39661,      7041,
   5.42694,      6930,
   5.45726,      6642,
   5.48759,      6588,
   5.51792,      6629,
   5.54825,      6525,
   5.57858,      6105,
    5.6089,      5930,
   5.63923,      5801,
   5.66956,      5703,
   5.69989,      5403,
   5.73022,      5416,
   5.76055,      5128,
   5.79087,      5230,
    5.8212,      5032,
   5.85153,      5065,
   5.88186,      4990,
   5.91219,      4848,
   5.94251,      4745,
   5.97284,      4842,
   6.00317,      4840,
    6.0335,      4556,
   6.06383,      4567,
   6.09415,      4449,
   6.12448,      4286,
   6.15481,      4391,
   6.18514,      4416,
   6.21547,      4277,
    6.2458,      4230,
   6.27612,      4194,
   6.30645,      4108,
   6.33678,      4054,
   6.36711,      3946,
   6.39744,      3934,
   6.42776,      3745,
   6.45809,      3997,
   6.48842,      3639,
   6.51875,      3781,
   6.54908,      3621,
    6.5794,      3634,
   6.60973,      3527,
   6.64006,      3506,
   6.67039,      3461,
   6.70072,      3467,
   6.73105,      3262,
   6.76137,      3299,
    6.7917,      3347,
   6.82203,      3183,
   6.85236,      3154,
   6.88269,      3119,
   6.91301,      3132,
   6.94334,      2922,
   6.97367,      2979,
     7.004,      2997,
   7.03433,      2884,
   7.06466,      2979,
   7.09498,      2884,
   7.12531,      2761,
   7.15564,      2741,
   7.18597,      2792,
    7.2163,      2842,
   7.24662,      2704,
   7.27695,      2711,
   7.30728,      2723,
   7.33761,      2603,
   7.36794,      2551,
   7.39826,      2666,
   7.42859,      2579,
   7.45892,      2502,
   7.48925,      2581,
   7.51958,      2448,
   7.54991,      2376,
   7.58023,      2359,
   7.61056,      2329,
   7.64089,      2329,
   7.67122,      2224,
   7.70155,      2330,
   7.73187,      2249,
    7.7622,      2186,
   7.79253,      2124,
   7.82286,      2175,
   7.85319,      2146,
   7.88352,      2053,
   7.91384,      2093,
   7.94417,      2049,
    7.9745,      2079,
   8.00483,      2004,
   8.03516,      1925,
   8.06548,      1946,
   8.09581,      1896,
   8.12614,      1968,
   8.15647,      1847,
    8.1868,      1871,
   8.21712,      1807,
   8.24745,      1684,
   8.27778,      1881,
   8.30811,      1769,
   8.33844,      1802,
   8.36877,      1803,
   8.39909,      1731,
   8.42942,      1618,
   8.45975,      1596,
   8.49008,      1660,
   8.52041,      1603,
   8.55073,      1640,
   8.58106,      1668,
   8.61139,      1686,
   8.64172,      1618,
   8.67205,      1648,
   8.70237,      1609,
    8.7327,      1547,
   8.76303,      1561,
   8.79336,      1584,
   8.82369,      1474,
   8.85402,      1468,
   8.88434,      1470,
   8.91467,      1401,
     8.945,      1448,
   8.97533,      1370,
   9.00566,      1405,
   9.03598,      1339,
   9.06631,      1319,
   9.09664,      1391,
   9.12697,      1384,
    9.1573,      1357,
   9.18763,      1332,
   9.21795,      1296,
   9.24828,      1312,
   9.27861,      1327,
   9.30894,      1221,
   9.33927,      1263,
   9.36959,      1247,
   9.39992,      1211,
   9.43025,      1229,
   9.46058,      1272,
   9.49091,      1229,
   9.52123,      1344,
   9.55156,      1162,
   9.58189,      1193,
   9.61222,      1228,
   9.64255,      1220,
   9.67288,      1210,
    9.7032,      1214,
   9.73353,      1140,
   9.76386,      1105,
   9.79419,      1199,
   9.82452,      1177,
   9.85484,      1096,
   9.88517,      1152,
    9.9155,      1128,
   9.94583,      1142,
   9.97616,      1112,
   10.0065,      1073,
   10.0368,      1083,
   10.0671,      1138,
   10.0975,      1103,
   10.1278,      1069,
   10.1581,      1031,
   10.1885,      1061,
   10.2188,      1080,
   10.2491,      1112,
   10.2794,      1058,
   10.3098,      1085,
   10.3401,      1115,
   10.3704,      1128,
   10.4008,      1058,
   10.4311,      1054,
   10.4614,      1068,
   10.4917,      1089,
   10.5221,      1011,
   10.5524,      1017,
   10.5827,      1012,
    10.613,      1026,
   10.6434,       996,
   10.6737,      1054,
    10.704,       981,
   10.7344,      1025,
   10.7647,      1079,
    10.795,      1011,
   10.8253,      1076,
   10.8557,      1013,
    10.886,       998,
   10.9163,       949,
   10.9467,      1025,
    10.977,       993,
   11.0073,       938,
   11.0376,       979,
    11.068,       987,
   11.0983,       970,
   11.1286,      1000,
    11.159,       982,
   11.1893,       946,
   11.2196,       923,
   11.2499,       973,
   11.2803,      1002,
   11.3106,       974,
   11.3409,       972,
   11.3713,       963,
   11.4016,       967,
   11.4319,       991,
   11.4622,       906,
   11.4926,       894,
   11.5229,       980,
   11.5532,       970,
   11.5835,       950,
   11.6139,       987,
   11.6442,       925,
   11.6745,       946,
   11.7049,       907,
   11.7352,       946,
   11.7655,       951,
   11.7958,       882,
   11.8262,       940,
   11.8565,       909,
   11.8868,       924,
   11.9172,       879,
   11.9475,       869,
   11.9778,       826,
   12.0081,       897,
   12.0385,       850,
   12.0688,       883,
   12.0991,       885,
   12.1295,       913,
   12.1598,       907,
   12.1901,       958,
   12.2204,       896,
   12.2508,       900,
   12.2811,       895,
   12.3114,       888,
   12.3418,       837,
   12.3721,       834,
   12.4024,       906,
   12.4327,       807,
   12.4631,       849,
   12.4934,       871,
   12.5237,       884,
    12.554,       782,
   12.5844,       837,
   12.6147,       814,
    12.645,       824,
   12.6754,       854,
   12.7057,       857,
    12.736,       867,
   12.7663,       816,
   12.7967,       828,
    12.827,       852,
   12.8573,       821,
   12.8877,       778,
    12.918,       795,
   12.9483,       824,
   12.9786,       827,
    13.009,       781,
   13.0393,       829,
   13.0696,       796,
      13.1,       809,
   13.1303,       855,
   13.1606,       779,
   13.1909,       830,
   13.2213,       818,
   13.2516,       784,
   13.2819,       867,
   13.3123,       788,
   13.3426,       785,
   13.3729,       764,
   13.4032,       736,
   13.4336,       774,
   13.4639,       772,
   13.4942,       757,
   13.5245,       785,
   13.5549,       808,
   13.5852,       819,
   13.6155,       795,
   13.6459,       801,
   13.6762,       805,
   13.7065,       727,
   13.7368,       779,
   13.7672,       745,
   13.7975,       778,
   13.8278,       756,
   13.8582,       821,
   13.8885,       795,
   13.9188,       750,
   13.9491,       797,
   13.9795,       744,
   14.0098,       723,
   14.0401,       713,
   14.0705,       736,
   14.1008,       804,
   14.1311,       764,
   14.1614,       731,
   14.1918,       720,
   14.2221,       728,
   14.2524,       748,
   14.2828,       733,
   14.3131,       751,
   14.3434,       713,
   14.3737,       754,
   14.4041,       775,
   14.4344,       738,
   14.4647,       681,
   14.4951,       728,
   14.5254,       659,
   14.5557,       719,
    14.586,       743,
   14.6164,       652,
   14.6467,       776,
    14.677,       702,
   14.7073,       670,
   14.7377,       688,
    14.768,       747,
   14.7983,       717,
   14.8287,       742,
    14.859,       678,
   14.8893,       706,
   14.9196,       745,
     14.95,       681,
   14.9803,       715,
   15.0106,       658,
    15.041,       731,
   15.0713,       693,
   15.1016,       720,
   15.1319,       721,
   15.1623,       710,
   15.1926,       635,
   15.2229,       692,
   15.2533,       720,
   15.2836,       632,
   15.3139,       693,
   15.3442,       693,
   15.3746,       621,
   15.4049,       670,
   15.4352,       678,
   15.4656,       650,
   15.4959,       723,
   15.5262,       685,
   15.5565,       699,
   15.5869,       646,
   15.6172,       671,
   15.6475,       645,
   15.6778,       627,
   15.7082,       642,
   15.7385,       700,
   15.7688,       610,
   15.7992,       691,
   15.8295,       647,
   15.8598,       632,
   15.8901,       637,
   15.9205,       623,
   15.9508,       666,
   15.9811,       612,
   16.0115,       667,
   16.0418,       692,
   16.0721,       647,
   16.1024,       654,
   16.1328,       689,
   16.1631,       666,
   16.1934,       629,
   16.2238,       637,
   16.2541,       630,
   16.2844,       624,
   16.3147,       656,
   16.3451,       637,
   16.3754,       659,
   16.4057,       611,
   16.4361,       659,
   16.4664,       603,
   16.4967,       608,
    16.527,       598,
   16.5574,       591,
   16.5877,       640,
    16.618,       598,
   16.6483,       637,
   16.6787,       656,
    16.709,       639,
   16.7393,       598,
   16.7697,       643,
      16.8,       581,
   16.8303,       654,
   16.8606,       608,
    16.891,       626,
   16.9213,       543,
   16.9516,       632,
    16.982,       617,
   17.0123,       611,
   17.0426,       610,
   17.0729,       624,
   17.1033,       609,
   17.1336,       558,
   17.1639,       669,
   17.1943,       594,
   17.2246,       633,
   17.2549,       528,
   17.2852,       557,
   17.3156,       603,
   17.3459,       604,
   17.3762,       643,
   17.4066,       638,
   17.4369,       581,
   17.4672,       599,
   17.4975,       598,
   17.5279,       566,
   17.5582,       588,
   17.5885,       596,
   17.6188,       571,
   17.6492,       584,
   17.6795,       585,
   17.7098,       537,
   17.7402,       542,
   17.7705,       585,
   17.8008,       550,
   17.8311,       598,
   17.8615,       603,
   17.8918,       596,
   17.9221,       539,
   17.9525,       567,
   17.9828,       536,
   18.0131,       586,
   18.0434,       584,
   18.0738,       574,
   18.1041,       583,
   18.1344,       522,
   18.1648,       560,
   18.1951,       581,
   18.2254,       569,
   18.2557,       558,
   18.2861,       579,
   18.3164,       598,
   18.3467,       540,
   18.3771,       540,
   18.4074,       535,
   18.4377,       554,
    18.468,       558,
   18.4984,       562,
   18.5287,       603,
    18.559,       575,
   18.5893,       605,
   18.6197,       563,
     18.65,       561,
   18.6803,       586,
   18.7107,       571,
    18.741,       545,
   18.7713,       551,
   18.8016,       566,
    18.832,       541,
   18.8623,       545,
   18.8926,       524,
    18.923,       520,
   18.9533,       556,
   18.9836,       560,
   19.0139,       554,
   19.0443,       572,
   19.0746,       529,
   19.1049,       543,
   19.1353,       539,
   19.1656,       507,
   19.1959,       507,
   19.2262,       546,
   19.2566,       541,
   19.2869,       543,
   19.3172,       540,
   19.3476,       567,
   19.3779,       540,
   19.4082,       521,
   19.4385,       501,
   19.4689,       529,
   19.4992,       537,
   19.5295,       565,
   19.5599,       486,
   19.5902,       482,
   19.6205,       482,
   19.6508,       519,
   19.6812,       482,
   19.7115,       495,
   19.7418,       516,
   19.7721,       571,
   19.8025,       534,
   19.8328,       521,
   19.8631,       501,
   19.8935,       516,
   19.9238,       520,
   19.9541,       534,
   19.9844,       505,
   20.0148,       534,
   20.0451,       503,
   20.0754,       500,
   20.1058,       515,
   20.1361,       476,
   20.1664,       548,
   20.1967,       541,
   20.2271,       544,
   20.2574,       476,
   20.2877,       549,
   20.3181,       481,
   20.3484,       463,
   20.3787,       520,
    20.409,       523,
   20.4394,       479,
   20.4697,       455,
      20.5,       494,
   20.5304,       490,
   20.5607,       492,
    20.591,       525,
   20.6213,       525,
   20.6517,       456,
    20.682,       511,
   20.7123,       481,
   20.7426,       518,
    20.773,       512,
   20.8033,       531,
   20.8336,       510,
    20.864,       506,
   20.8943,       466,
   20.9246,       460,
   20.9549,       490,
   20.9853,       532,
   21.0156,       506,
   21.0459,       465,
   21.0763,       512,
   21.1066,       496,
   21.1369,       481,
   21.1672,       498,
   21.1976,       498,
   21.2279,       502,
   21.2582,       486,
   21.2886,       481,
   21.3189,       488,
   21.3492,       472,
   21.3795,       497,
   21.4099,       459,
   21.4402,       426,
   21.4705,       489,
   21.5009,       480,
   21.5312,       472,
   21.5615,       494,
   21.5918,       496,
   21.6222,       477,
   21.6525,       425,
   21.6828,       486,
   21.7131,       515,
   21.7435,       464,
   21.7738,       478,
   21.8041,       487,
   21.8345,       498,
   21.8648,       510,
   21.8951,       477,
   21.9254,       486,
   21.9558,       478,
   21.9861,       453,
   22.0164,       436,
   22.0468,       473,
   22.0771,       454,
   22.1074,       447,
   22.1377,       455,
   22.1681,       469,
   22.1984,       422,
   22.2287,       441,
   22.2591,       475,
   22.2894,       522,
   22.3197,       449,
     22.35,       495,
   22.3804,       407,
   22.4107,       435,
    22.441,       451,
   22.4714,       482,
   22.5017,       467,
    22.532,       465,
   22.5623,       450,
   22.5927,       449,
    22.623,       466,
   22.6533,       513,
   22.6836,       455,
    22.714,       458,
   22.7443,       442,
   22.7746,       436,
    22.805,       484,
   22.8353,       474,
   22.8656,       515,
   22.8959,       425,
   22.9263,       426,
   22.9566,       450,
   22.9869,       422,
   23.0173,       470,
   23.0476,       468,
   23.0779,       435,
   23.1082,       449,
   23.1386,       458,
   23.1689,       429,
   23.1992,       488,
   23.2296,       503,
   23.2599,       443,
   23.2902,       476,
   23.3205,       451,
   23.3509,       452,
   23.3812,       421,
   23.4115,       438,
   23.4419,       414,
   23.4722,       460,
   23.5025,       514,
   23.5328,       483,
   23.5632,       387,
   23.5935,       432,
   23.6238,       461,
   23.6541,       489,
   23.6845,       402,
   23.7148,       417,
   23.7451,       467,
   23.7755,       448,
   23.8058,       438,
   23.8361,       436,
   23.8664,       412,
   23.8968,       425,
   23.9271,       444,
   23.9574,       408,
   23.9878,       433,
   24.0181,       414,
   24.0484,       438,
   24.0787,       453,
   24.1091,       478,
   24.1394,       457,
   24.1697,       414,
   24.2001,       427,
   24.2304,       392,
   24.2607,       433,
    24.291,       454,
   24.3214,       433,
   24.3517,       439,
    24.382,       421,
   24.4124,       460,
   24.4427,       423,
    24.473,       416,
   24.5033,       451,
   24.5337,       495,
    24.564,       495,
   24.5943,       500,
   24.6246,       453,
    24.655,       448,
   24.6853,       424,
   24.7156,       445,
    24.746,       408,
   24.7763,       452,
   24.8066,       454,
   24.8369,       439,
   24.8673,       433,
   24.8976,       418,
   24.9279,       423,
   24.9583,       393,
   24.9886,       427,
   25.0189,       421,
   25.0492,       423,
   25.0796,       423,
   25.1099,       417,
   25.1402,       417,
   25.1706,       419,
   25.2009,       404,
   25.2312,       405,
   25.2615,       407,
   25.2919,       417,
   25.3222,       393,
   25.3525,       408,
   25.3829,       394,
   25.4132,       398,
   25.4435,       350,
   25.4738,       425,
   25.5042,       408,
   25.5345,       433,
   25.5648,       432,
   25.5952,       384,
   25.6255,       387,
   25.6558,       389,
   25.6861,       411,
   25.7165,       409,
   25.7468,       460,
   25.7771,       418,
   25.8074,       371,
   25.8378,       411,
   25.8681,       404,
   25.8984,       410,
   25.9288,       368,
   25.9591,       402,
   25.9894,       399,
   26.0197,       420,
   26.0501,       392,
   26.0804,       428,
   26.1107,       429,
   26.1411,       392,
   26.1714,       407,
   26.2017,       349,
    26.232,       430,
   26.2624,       424,
   26.2927,       377,
    26.323,       380,
   26.3534,       394,
   26.3837,       383,
    26.414,       383,
   26.4443,       410,
   26.4747,       394,
    26.505,       418,
   26.5353,       378,
   26.5657,       373,
    26.596,       375,
   26.6263,       408,
   26.6566,       395,
    26.687,       367,
   26.7173,       393,
   26.7476,       405,
   26.7779,       349,
   26.8083,       425,
   26.8386,       396,
   26.8689,       441,
   26.8993,       429,
   26.9296,       407,
   26.9599,       418,
   26.9902,       439,
   27.0206,       492,
   27.0509,       447,
   27.0812,       509,
   27.1116,       491,
   27.1419,       531,
   27.1722,       560,
   27.2025,       582,
   27.2329,       624,
   27.2632,       597,
   27.2935,       604,
   27.3239,       616,
   27.3542,       541,
   27.3845,       516,
   27.4148,       528,
   27.4452,       481,
   27.4755,       462,
   27.5058,       504,
   27.5362,       458,
   27.5665,       448,
   27.5968,       452,
   27.6271,       491,
   27.6575,       448,
   27.6878,       435,
   27.7181,       429,
   27.7484,       401,
   27.7788,       406,
   27.8091,       376,
   27.8394,       402,
   27.8698,       391,
   27.9001,       357,
   27.9304,       401,
   27.9607,       375,
   27.9911,       375,
   28.0214,       405,
   28.0517,       359,
   28.0821,       378,
   28.1124,       376,
   28.1427,       407,
    28.173,       378,
   28.2034,       381,
   28.2337,       373,
    28.264,       363,
   28.2944,       368,
   28.3247,       370,
    28.355,       391,
   28.3853,       314,
   28.4157,       376,
    28.446,       358,
   28.4763,       373,
   28.5067,       378,
    28.537,       359,
   28.5673,       390,
   28.5976,       384,
    28.628,       383,
   28.6583,       389,
   28.6886,       404,
   28.7189,       338,
   28.7493,       365,
   28.7796,       402,
   28.8099,       379,
   28.8403,       359,
   28.8706,       412,
   28.9009,       373,
   28.9312,       370,
   28.9616,       360,
   28.9919,       395,
   29.0222,       360,
   29.0526,       323,
   29.0829,       363,
   29.1132,       370,
   29.1435,       381,
   29.1739,       361,
   29.2042,       361,
   29.2345,       358,
   29.2649,       379,
   29.2952,       349,
   29.3255,       423,
   29.3558,       368,
   29.3862,       355,
   29.4165,       333,
   29.4468,       364,
   29.4772,       348,
   29.5075,       358,
   29.5378,       338,
   29.5681,       372,
   29.5985,       378,
   29.6288,       385,
   29.6591,       365,
   29.6894,       355,
   29.7198,       362,
   29.7501,       397,
   29.7804,       363,
   29.8108,       397,
   29.8411,       405,
   29.8714,       433,
   29.9017,       387,
   29.9321,       387,
   29.9624,       420,
   29.9927,       447,
   30.0231,       433,
   30.0534,       437,
   30.0837,       449,
    30.114,       432,
   30.1444,       458,
   30.1747,       517,
    30.205,       496,
   30.2354,       534,
   30.2657,       594,
    30.296,       556,
   30.3263,       661,
   30.3567,       712,
    30.387,       828,
   30.4173,       972,
   30.4477,      1206,
    30.478,      1551,
   30.5083,      2229,
   30.5386,      3063,
    30.569,      3512,
   30.5993,      3344,
   30.6296,      2756,
     30.66,      2127,
   30.6903,      1537,
   30.7206,      1194,
   30.7509,       982,
   30.7813,       825,
   30.8116,       757,
   30.8419,       675,
   30.8722,       620,
   30.9026,       613,
   30.9329,       581,
   30.9632,       511,
   30.9936,       568,
   31.0239,       531,
   31.0542,       470,
   31.0845,       471,
   31.1149,       554,
   31.1452,       503,
   31.1755,       467,
   31.2059,       497,
   31.2362,       474,
   31.2665,       461,
   31.2968,       526,
   31.3272,       507,
   31.3575,       536,
   31.3878,       546,
   31.4182,       582,
   31.4485,       603,
   31.4788,       589,
   31.5091,       725,
   31.5395,       675,
   31.5698,       774,
   31.6001,       896,
   31.6305,       967,
   31.6608,      1217,
   31.6911,      1426,
   31.7214,      1661,
   31.7518,      1757,
   31.7821,      1526,
   31.8124,      1319,
   31.8427,      1135,
   31.8731,       940,
   31.9034,       808,
   31.9337,       642,
   31.9641,       586,
   31.9944,       621,
   32.0247,       543,
    32.055,       468,
   32.0854,       443,
   32.1157,       431,
    32.146,       438,
   32.1764,       414,
   32.2067,       398,
    32.237,       382,
   32.2673,       413,
   32.2977,       392,
    32.328,       393,
   32.3583,       389,
   32.3887,       376,
    32.419,       377,
   32.4493,       371,
   32.4796,       380,
     32.51,       340,
   32.5403,       360,
   32.5706,       355,
    32.601,       364,
   32.6313,       319,
   32.6616,       354,
   32.6919,       352,
   32.7223,       330,
   32.7526,       309,
   32.7829,       308,
   32.8132,       345,
   32.8436,       354,
   32.8739,       313,
   32.9042,       300,
   32.9346,       302,
   32.9649,       315,
   32.9952,       308,
   33.0255,       339,
   33.0559,       343,
   33.0862,       372,
   33.1165,       355,
   33.1469,       320,
   33.1772,       324,
   33.2075,       304,
   33.2378,       345,
   33.2682,       317,
   33.2985,       289,
   33.3288,       294,
   33.3592,       295,
   33.3895,       343,
   33.4198,       317,
   33.4501,       320,
   33.4805,       322,
   33.5108,       338,
   33.5411,       368,
   33.5715,       353,
   33.6018,       306,
   33.6321,       335,
   33.6624,       354,
   33.6928,       321,
   33.7231,       308,
   33.7534,       328,
   33.7837,       332,
   33.8141,       308,
   33.8444,       326,
   33.8747,       349,
   33.9051,       310,
   33.9354,       368,
   33.9657,       326,
    33.996,       349,
   34.0264,       374,
   34.0567,       372,
    34.087,       348,
   34.1174,       358,
   34.1477,       362,
    34.178,       374,
   34.2083,       401,
   34.2387,       446,
    34.269,       422,
   34.2993,       537,
   34.3297,       565,
     34.36,       656,
   34.3903,       641,
   34.4206,       675,
    34.451,       677,
   34.4813,       652,
   34.5116,       802,
    34.542,       846,
   34.5723,       999,
   34.6026,      1041,
   34.6329,      1226,
   34.6633,      1457,
   34.6936,      1671,
   34.7239,      1772,
   34.7542,      1972,
   34.7846,      2089,
   34.8149,      2157,
   34.8452,      2223,
   34.8756,      2210,
   34.9059,      2137,
   34.9362,      2004,
   34.9665,      1898,
   34.9969,      1726,
   35.0272,      1564,
   35.0575,      1381,
   35.0879,      1283,
   35.1182,      1195,
   35.1485,      1141,
   35.1788,       971,
   35.2092,       920,
   35.2395,       847,
   35.2698,       795,
   35.3002,       734,
   35.3305,       685,
   35.3608,       659,
   35.3911,       592,
   35.4215,       571,
   35.4518,       607,
   35.4821,       559,
   35.5125,       540,
   35.5428,       520,
   35.5731,       471,
   35.6034,       503,
   35.6338,       444,
   35.6641,       444,
   35.6944,       424,
   35.7248,       439,
   35.7551,       435,
   35.7854,       434,
   35.8157,       390,
   35.8461,       377,
   35.8764,       396,
   35.9067,       370,
    35.937,       349,
   35.9674,       390,
   35.9977,       385,
    36.028,       348,
   36.0584,       381,
   36.0887,       375,
    36.119,       336,
   36.1493,       343,
   36.1797,       321,
     36.21,       374,
   36.2403,       392,
   36.2707,       393,
    36.301,       424,
   36.3313,       422,
   36.3616,       418,
    36.392,       405,
   36.4223,       384,
   36.4526,       331,
    36.483,       346,
   36.5133,       332,
   36.5436,       332,
   36.5739,       309,
   36.6043,       374,
   36.6346,       296,
   36.6649,       301,
   36.6953,       315,
   36.7256,       296,
   36.7559,       341,
   36.7862,       311,
   36.8166,       310,
   36.8469,       276,
   36.8772,       311,
   36.9075,       288,
   36.9379,       281,
   36.9682,       302,
   36.9985,       276,
   37.0289,       331,
   37.0592,       330,
   37.0895,       283,
   37.1198,       343,
   37.1502,       294,
   37.1805,       290,
   37.2108,       379,
   37.2412,       325,
   37.2715,       357,
   37.3018,       329,
   37.3321,       327,
   37.3625,       328,
   37.3928,       345,
   37.4231,       323,
   37.4535,       329,
   37.4838,       301,
   37.5141,       378,
   37.5444,       359,
   37.5748,       323,
   37.6051,       326,
   37.6354,       351,
   37.6658,       323,
   37.6961,       276,
   37.7264,       341,
   37.7567,       331,
   37.7871,       321,
   37.8174,       366,
   37.8477,       315,
    37.878,       328,
   37.9084,       335,
   37.9387,       300,
    37.969,       327,
   37.9994,       347,
   38.0297,       381,
     38.06,       397,
   38.0903,       391,
   38.1207,       366,
    38.151,       433,
   38.1813,       477,
   38.2117,       471,
    38.242,       500,
   38.2723,       517,
   38.3026,       483,
    38.333,       518,
   38.3633,       485,
   38.3936,       472,
    38.424,       480,
   38.4543,       462,
   38.4846,       522,
   38.5149,       563,
   38.5453,       658,
   38.5756,       772,
   38.6059,       939,
   38.6363,      1275,
   38.6666,      1375,
   38.6969,      1341,
   38.7272,      1232,
   38.7576,      1045,
   38.7879,       844,
   38.8182,       667,
   38.8485,       537,
   38.8789,       523,
   38.9092,       486,
   38.9395,       436,
   38.9699,       378,
   39.0002,       385,
   39.0305,       370,
   39.0608,       336,
   39.0912,       333,
   39.1215,       327,
   39.1518,       351,
   39.1822,       295,
   39.2125,       303,
   39.2428,       299,
   39.2731,       338,
   39.3035,       330,
   39.3338,       309,
   39.3641,       281,
   39.3945,       291,
   39.4248,       299,
   39.4551,       280,
   39.4854,       298,
   39.5158,       273,
   39.5461,       277,
   39.5764,       268,
   39.6068,       266,
   39.6371,       263,
   39.6674,       290,
   39.6977,       264,
   39.7281,       257,
   39.7584,       289,
   39.7887,       300,
    39.819,       293,
   39.8494,       286,
   39.8797,       294,
     39.91,       260,
   39.9404,       288,
   39.9707,       287,
    40.001,       248,
   40.0313,       295,
   40.0617,       257,
    40.092,       273,
   40.1223,       287,
   40.1527,       274,
    40.183,       272,
   40.2133,       278,
   40.2436,       312,
    40.274,       289,
   40.3043,       279,
   40.3346,       300,
    40.365,       273,
   40.3953,       272,
   40.4256,       287,
   40.4559,       302,
   40.4863,       265,
   40.5166,       288,
   40.5469,       288,
   40.5773,       285,
   40.6076,       287,
   40.6379,       269,
   40.6682,       289,
   40.6986,       270,
   40.7289,       261,
   40.7592,       295,
   40.7895,       270,
   40.8199,       261,
   40.8502,       285,
   40.8805,       276,
   40.9109,       297,
   40.9412,       276,
   40.9715,       266,
   41.0018,       259,
   41.0322,       300,
   41.0625,       244,
   41.0928,       258,
   41.1232,       290,
   41.1535,       268,
   41.1838,       317,
   41.2141,       244,
   41.2445,       297,
   41.2748,       290,
   41.3051,       299,
   41.3355,       296,
   41.3658,       262,
   41.3961,       314,
   41.4264,       268,
   41.4568,       298,
   41.4871,       288,
   41.5174,       264,
   41.5478,       312,
   41.5781,       263,
   41.6084,       312,
   41.6387,       301,
   41.6691,       325,
   41.6994,       294,
   41.7297,       310,
   41.7601,       317,
   41.7904,       359,
   41.8207,       284,
    41.851,       337,
   41.8814,       362,
   41.9117,       346,
    41.942,       388,
   41.9723,       411,
   42.0027,       433,
    42.033,       430,
   42.0633,       480,
   42.0937,       519,
    42.124,       726,
   42.1543,       856,
   42.1846,       965,
    42.215,       937,
   42.2453,       895,
   42.2756,       983,
    42.306,       886,
   42.3363,       800,
   42.3666,       739,
   42.3969,       663,
   42.4273,       618,
   42.4576,       576,
   42.4879,       572,
   42.5183,       541,
   42.5486,       518,
   42.5789,       563,
   42.6092,       527,
   42.6396,       495,
   42.6699,       477,
   42.7002,       507,
   42.7306,       509,
   42.7609,       499,
   42.7912,       493,
   42.8215,       437,
   42.8519,       458,
   42.8822,       390,
   42.9125,       430,
   42.9428,       381,
   42.9732,       367,
   43.0035,       359,
   43.0338,       362,
   43.0642,       364,
   43.0945,       369,
   43.1248,       342,
   43.1551,       336,
   43.1855,       334,
   43.2158,       328,
   43.2461,       331,
   43.2765,       363,
   43.3068,       344,
   43.3371,       348,
   43.3674,       367,
   43.3978,       368,
   43.4281,       377,
   43.4584,       417,
   43.4888,       436,
   43.5191,       465,
   43.5494,       485,
   43.5797,       498,
   43.6101,       539,
   43.6404,       456,
   43.6707,       468,
   43.7011,       446,
   43.7314,       380,
   43.7617,       394,
    43.792,       374,
   43.8224,       343,
   43.8527,       373,
    43.883,       371,
   43.9133,       338,
   43.9437,       384,
    43.974,       358,
   44.0043,       390,
   44.0347,       368,
    44.065,       377,
   44.0953,       399,
   44.1256,       452,
    44.156,       453,
   44.1863,       544,
   44.2166,       706,
    44.247,       857,
   44.2773,      1021,
   44.3076,      1018,
   44.3379,       964,
   44.3683,       886,
   44.3986,       794,
   44.4289,       656,
   44.4593,       585,
   44.4896,       501,
   44.5199,       467,
   44.5502,       446,
   44.5806,       424,
   44.6109,       417,
   44.6412,       429,
   44.6716,       420,
   44.7019,       458,
   44.7322,       402,
   44.7625,       432,
   44.7929,       518,
   44.8232,       568,
   44.8535,       591,
   44.8838,       695,
   44.9142,       749,
   44.9445,       700,
   44.9748,       757,
   45.0052,       744,
   45.0355,       678,
   45.0658,       682,
   45.0961,       669,
   45.1265,       698,
   45.1568,       685,
   45.1871,       674,
   45.2175,       588,
   45.2478,       564,
   45.2781,       510,
   45.3084,       432,
   45.3388,       404,
   45.3691,       365,
   45.3994,       344,
   45.4298,       326,
   45.4601,       292,
   45.4904,       352,
   45.5207,       300,
   45.5511,       300,
   45.5814,       306,
   45.6117,       278,
   45.6421,       282,
   45.6724,       253,
   45.7027,       282,
    45.733,       256,
   45.7634,       267,
   45.7937,       270,
    45.824,       280,
   45.8543,       290,
   45.8847,       244,
    45.915,       264,
   45.9453,       289,
   45.9757,       282,
    46.006,       267,
   46.0363,       248,
   46.0666,       280,
    46.097,       280,
   46.1273,       252,
   46.1576,       318,
    46.188,       271,
   46.2183,       260,
   46.2486,       293,
   46.2789,       285,
   46.3093,       297,
   46.3396,       294,
   46.3699,       287,
   46.4003,       271,
   46.4306,       297,
   46.4609,       298,
   46.4912,       348,
   46.5216,       317,
   46.5519,       364,
   46.5822,       380,
   46.6126,       409,
   46.6429,       466,
   46.6732,       414,
   46.7035,       459,
   46.7339,       477,
   46.7642,       482,
   46.7945,       530,
   46.8249,       524,
   46.8552,       532,
   46.8855,       507,
   46.9158,       489,
   46.9462,       464,
   46.9765,       457,
   47.0068,       430,
   47.0371,       430,
   47.0675,       389,
   47.0978,       388,
   47.1281,       348,
   47.1585,       398,
   47.1888,       352,
   47.2191,       319,
   47.2494,       319,
   47.2798,       329,
   47.3101,       328,
   47.3404,       341,
   47.3708,       316,
   47.4011,       328,
   47.4314,       319,
   47.4617,       274,
   47.4921,       295,
   47.5224,       260,
   47.5527,       296,
   47.5831,       274,
   47.6134,       300,
   47.6437,       287,
    47.674,       317,
   47.7044,       282,
   47.7347,       280,
    47.765,       268,
   47.7954,       277,
   47.8257,       256,
    47.856,       290,
   47.8863,       268,
   47.9167,       280,
    47.947,       277,
   47.9773,       273,
   48.0076,       301,
    48.038,       315,
   48.0683,       326,
   48.0986,       352,
    48.129,       330,
   48.1593,       336,
   48.1896,       468,
   48.2199,       443,
   48.2503,       432,
   48.2806,       441,
   48.3109,       433,
   48.3413,       398,
   48.3716,       379,
   48.4019,       377,
   48.4322,       316,
   48.4626,       327,
   48.4929,       321,
   48.5232,       303,
   48.5536,       282,
   48.5839,       255,
   48.6142,       310,
   48.6445,       275,
   48.6749,       257,
   48.7052,       267,
   48.7355,       261,
   48.7659,       278,
   48.7962,       242,
   48.8265,       241,
   48.8568,       254,
   48.8872,       236,
   48.9175,       281,
   48.9478,       244,
   48.9781,       244,
   49.0085,       256,
   49.0388,       260,
   49.0691,       260,
   49.0995,       238,
   49.1298,       252,
   49.1601,       261,
   49.1904,       251,
   49.2208,       231,
   49.2511,       264,
   49.2814,       253,
   49.3118,       238,
   49.3421,       253,
   49.3724,       226,
   49.4027,       252,
   49.4331,       240,
   49.4634,       253,
   49.4937,       251,
   49.5241,       276,
   49.5544,       272,
   49.5847,       223,
    49.615,       265,
   49.6454,       241,
   49.6757,       222,
    49.706,       238,
   49.7364,       248,
   49.7667,       230,
    49.797,       285,
   49.8273,       255,
   49.8577,       253,
    49.888,       285,
   49.9183,       249,
   49.9486,       240,
    49.979,       272,
   50.0093,       268,
   50.0396,       310,
     50.07,       297,
   50.1003,       323,
   50.1306,       357,
   50.1609,       387,
   50.1913,       435,
   50.2216,       512,
   50.2519,       566,
   50.2823,       626,
   50.3126,       577,
   50.3429,       546,
   50.3732,       495,
   50.4036,       497,
   50.4339,       464,
   50.4642,       408,
   50.4946,       344,
   50.5249,       326,
   50.5552,       311,
   50.5855,       318,
   50.6159,       285,
   50.6462,       287,
   50.6765,       299,
   50.7069,       299,
   50.7372,       303,
   50.7675,       265,
   50.7978,       300,
   50.8282,       287,
   50.8585,       286,
   50.8888,       309,
   50.9191,       290,
   50.9495,       303,
   50.9798,       310,
   51.0101,       337,
   51.0405,       285,
   51.0708,       324,
   51.1011,       365,
   51.1314,       351,
   51.1618,       436,
   51.1921,       424,
   51.2224,       375,
   51.2528,       408,
   51.2831,       418,
   51.3134,       433,
   51.3437,       483,
   51.3741,       444,
   51.4044,       430,
   51.4347,       405,
   51.4651,       398,
   51.4954,       385,
   51.5257,       386,
    51.556,       386,
   51.5864,       382,
   51.6167,       380,
    51.647,       355,
   51.6774,       302,
   51.7077,       355,
    51.738,       337,
   51.7683,       320,
   51.7987,       301,
    51.829,       306,
   51.8593,       291,
   51.8897,       319,
     51.92,       280,
   51.9503,       268,
   51.9806,       269,
    52.011,       301,
   52.0413,       298,
   52.0716,       282,
   52.1019,       238,
   52.1323,       271,
   52.1626,       286,
   52.1929,       265,
   52.2233,       263,
   52.2536,       260,
   52.2839,       283,
   52.3142,       271,
   52.3446,       261,
   52.3749,       252,
   52.4052,       277,
   52.4356,       276,
   52.4659,       238,
   52.4962,       268,
   52.5265,       270,
   52.5569,       290,
   52.5872,       249,
   52.6175,       282,
   52.6479,       264,
   52.6782,       261,
   52.7085,       242,
   52.7388,       252,
   52.7692,       251,
   52.7995,       282,
   52.8298,       275,
   52.8602,       279,
   52.8905,       250,
   52.9208,       269,
   52.9511,       267,
   52.9815,       251,
   53.0118,       287,
   53.0421,       297,
   53.0724,       267,
   53.1028,       272,
   53.1331,       283,
   53.1634,       258,
   53.1938,       307,
   53.2241,       319,
   53.2544,       318,
   53.2847,       302,
   53.3151,       373,
   53.3454,       348,
   53.3757,       339,
   53.4061,       350,
   53.4364,       376,
   53.4667,       355,
    53.497,       415,
   53.5274,       410,
   53.5577,       398,
    53.588,       498,
   53.6184,       493,
   53.6487,       532,
    53.679,       661,
   53.7093,       769,
   53.7397,      1035,
     53.77,      1300,
   53.8003,      1351,
   53.8307,      1260,
    53.861,      1102,
   53.8913,      1077,
   53.9216,      1014,
    53.952,       857,
   53.9823,       706,
   54.0126,       629,
   54.0429,       534,
   54.0733,       458,
   54.1036,       473,
   54.1339,       391,
   54.1643,       382,
   54.1946,       321,
   54.2249,       332,
   54.2552,       360,
   54.2856,       324,
   54.3159,       317,
   54.3462,       337,
   54.3766,       277,
   54.4069,       294,
   54.4372,       293,
   54.4675,       288,
   54.4979,       284,
   54.5282,       305,
   54.5585,       291,
   54.5889,       295,
   54.6192,       263,
   54.6495,       246,
   54.6798,       245,
   54.7102,       267,
   54.7405,       277,
   54.7708,       274,
   54.8012,       260,
   54.8315,       272,
   54.8618,       284,
   54.8921,       255,
   54.9225,       277,
   54.9528,       246,
   54.9831,       275,
   55.0134,       250,
   55.0438,       254,
   55.0741,       266,
   55.1044,       246,
   55.1348,       280,
   55.1651,       262,
   55.1954,       276,
   55.2257,       269,
   55.2561,       263,
   55.2864,       273,
   55.3167,       301,
   55.3471,       281,
   55.3774,       294,
   55.4077,       328,
    55.438,       287,
   55.4684,       306,
   55.4987,       266,
    55.529,       305,
   55.5594,       294,
   55.5897,       262,
     55.62,       293,
   55.6503,       298,
   55.6807,       278,
    55.711,       300,
   55.7413,       280,
   55.7717,       315,
    55.802,       307,
   55.8323,       340,
   55.8626,       357,
    55.893,       310,
   55.9233,       295,
   55.9536,       347,
   55.9839,       335,
   56.0143,       333,
   56.0446,       406,
   56.0749,       361,
   56.1053,       373,
   56.1356,       399,
   56.1659,       348,
   56.1962,       394,
   56.2266,       429,
   56.2569,       420,
   56.2872,       415,
   56.3176,       432,
   56.3479,       446,
   56.3782,       469,
   56.4085,       443,
   56.4389,       485,
   56.4692,       441,
   56.4995,       466,
   56.5299,       521,
   56.5602,       541,
   56.5905,       573,
   56.6208,       576,
   56.6512,       685,
   56.6815,       710,
   56.7118,       761,
   56.7422,       790,
   56.7725,       801,
   56.8028,       787,
   56.8331,       820,
   56.8635,       839,
   56.8938,       815,
   56.9241,       800,
   56.9544,       691,
   56.9848,       662,
   57.0151,       572,
   57.0454,       525,
   57.0758,       521,
   57.1061,       486,
   57.1364,       519,
   57.1667,       461,
   57.1971,       428,
   57.2274,       433,
   57.2577,       424,
   57.2881,       421,
   57.3184,       405,
   57.3487,       408,
    57.379,       350,
   57.4094,       387,
   57.4397,       419,
     57.47,       406,
   57.5004,       385,
   57.5307,       375,
    57.561,       409,
   57.5913,       393,
   57.6217,       391,
    57.652,       425,
   57.6823,       427,
   57.7127,       415,
    57.743,       418,
   57.7733,       477,
   57.8036,       426,
    57.834,       475,
   57.8643,       427,
   57.8946,       425,
    57.925,       450,
   57.9553,       433,
   57.9856,       446,
   58.0159,       429,
   58.0463,       432,
   58.0766,       412,
   58.1069,       397,
   58.1372,       390,
   58.1676,       396,
   58.1979,       405,
   58.2282,       361,
   58.2586,       365,
   58.2889,       394,
   58.3192,       365,
   58.3495,       384,
   58.3799,       367,
   58.4102,       364,
   58.4405,       349,
   58.4709,       358,
   58.5012,       366,
   58.5315,       386,
   58.5618,       365,
   58.5922,       362,
   58.6225,       389,
   58.6528,       337,
   58.6832,       354,
   58.7135,       353,
   58.7438,       362,
   58.7741,       380,
   58.8045,       375,
   58.8348,       381,
   58.8651,       410,
   58.8955,       409,
   58.9258,       437,
   58.9561,       527,
   58.9864,       583,
   59.0168,       602,
   59.0471,       599,
   59.0774,       603,
   59.1077,       538,
   59.1381,       518,
   59.1684,       519,
   59.1987,       485,
   59.2291,       440,
   59.2594,       382,
   59.2897,       379,
     59.32,       357,
   59.3504,       346,
   59.3807,       330,
    59.411,       306,
   59.4414,       339,
   59.4717,       332,
    59.502,       272,
   59.5323,       308,
   59.5627,       310,
    59.593,       259,
   59.6233,       291,
   59.6537,       268,
    59.684,       292,
   59.7143,       291,
   59.7446,       264,
    59.775,       268,
   59.8053,       258,
   59.8356,       259,
    59.866,       268,
   59.8963,       278,
   59.9266,       224,
   59.9569,       263,
   59.9873,       240,
   60.0176,       259,
   60.0479,       258,
   60.0782,       260,
   60.1086,       243,
   60.1389,       221,
   60.1692,       242,
   60.1996,       270,
   60.2299,       249,
   60.2602,       246,
   60.2905,       241,
   60.3209,       249,
   60.3512,       232,
   60.3815,       246,
   60.4119,       257,
   60.4422,       311,
   60.4725,       255,
   60.5028,       247,
   60.5332,       225,
   60.5635,       255,
   60.5938,       244,
   60.6242,       260,
   60.6545,       265,
   60.6848,       251,
   60.7151,       246,
   60.7455,       224,
   60.7758,       264,
   60.8061,       250,
   60.8365,       277,
   60.8668,       241,
   60.8971,       261,
   60.9274,       278,
   60.9578,       282,
   60.9881,       256,
   61.0184,       261,
   61.0487,       289,
   61.0791,       291,
   61.1094,       266,
   61.1397,       261,
   61.1701,       318,
   61.2004,       267,
   61.2307,       284,
    61.261,       274,
   61.2914,       305,
   61.3217,       255,
    61.352,       281,
   61.3824,       274,
   61.4127,       283,
    61.443,       299,
   61.4733,       275,
   61.5037,       292,
    61.534,       308,
   61.5643,       337,
   61.5947,       386,
    61.625,       409,
   61.6553,       451,
   61.6856,       565,
    61.716,       632,
   61.7463,       495,
   61.7766,       525,
    61.807,       490,
   61.8373,       497,
   61.8676,       457,
   61.8979,       379,
   61.9283,       352,
   61.9586,       342,
   61.9889,       333,
   62.0192,       357,
   62.0496,       301,
   62.0799,       303,
   62.1102,       317,
   62.1406,       295,
   62.1709,       283,
   62.2012,       307,
   62.2315,       323,
   62.2619,       342,
   62.2922,       397,
   62.3225,       386,
   62.3529,       404,
   62.3832,       418,
   62.4135,       436,
   62.4438,       406,
   62.4742,       390,
   62.5045,       398,
   62.5348,       365,
   62.5652,       319,
   62.5955,       302,
   62.6258,       305,
   62.6561,       300,
   62.6865,       273,
   62.7168,       259,
   62.7471,       251,
   62.7775,       255,
   62.8078,       229,
   62.8381,       279,
   62.8684,       252,
   62.8988,       231,
   62.9291,       241,
   62.9594,       233,
   62.9898,       227,
   63.0201,       217,
   63.0504,       244,
   63.0807,       251,
   63.1111,       212,
   63.1414,       222,
   63.1717,       222,
    63.202,       194,
   63.2324,       234,
   63.2627,       204,
    63.293,       208,
   63.3234,       200,
   63.3537,       224,
    63.384,       196,
   63.4143,       205,
   63.4447,       235,
    63.475,       209,
   63.5053,       207,
   63.5357,       225,
    63.566,       227,
   63.5963,       224,
   63.6266,       222,
    63.657,       224,
   63.6873,       209,
   63.7176,       213,
    63.748,       186,
   63.7783,       206,
   63.8086,       206,
   63.8389,       210,
   63.8693,       234,
   63.8996,       218,
   63.9299,       201,
   63.9603,       222,
   63.9906,       222,
   64.0209,       233,
   64.0512,       223,
   64.0816,       208,
   64.1119,       222,
   64.1422,       203,
   64.1725,       220,
   64.2029,       205,
   64.2332,       201,
   64.2635,       205,
   64.2939,       214,
   64.3242,       214,
   64.3545,       179,
   64.3848,       203,
   64.4152,       204,
   64.4455,       219,
   64.4758,       197,
   64.5062,       169,
   64.5365,       226,
   64.5668,       186,
   64.5971,       188,
   64.6275,       217,
   64.6578,       195,
   64.6881,       214,
   64.7185,       194,
   64.7488,       181,
   64.7791,       189,
   64.8094,       197,
   64.8398,       201,
   64.8701,       186,
   64.9004,       185,
   64.9308,       189,
   64.9611,       195,
   64.9914,       184,
   65.0217,       188,
   65.0521,       188,
   65.0824,       184,
   65.1127,       206,
    65.143,       193,
   65.1734,       195,
   65.2037,       210,
    65.234,       181,
   65.2644,       187,
   65.2947,       198,
    65.325,       178,
   65.3553,       207,
   65.3857,       187,
    65.416,       183,
   65.4463,       219,
   65.4767,       216,
    65.507,       190,
   65.5373,       180,
   65.5676,       210,
    65.598,       190,
   65.6283,       196,
   65.6586,       228,
    65.689,       211,
   65.7193,       213,
   65.7496,       194,
   65.7799,       195,
   65.8103,       203,
   65.8406,       225,
   65.8709,       223,
   65.9013,       220,
   65.9316,       200,
   65.9619,       221,
   65.9922,       188,
   66.0226,       220,
   66.0529,       206,
   66.0832,       211,
   66.1135,       203,
   66.1439,       234,
   66.1742,       230,
   66.2045,       208,
   66.2349,       219,
   66.2652,       235,
   66.2955,       228,
   66.3258,       198,
   66.3562,       202,
   66.3865,       227,
   66.4168,       190,
   66.4472,       193,
   66.4775,       210,
   66.5078,       200,
   66.5381,       190,
   66.5685,       188,
   66.5988,       191,
   66.6291,       200,
   66.6595,       205,
   66.6898,       190,
   66.7201,       184,
   66.7504,       211,
   66.7808,       208,
   66.8111,       196,
   66.8414,       177,
   66.8718,       223,
   66.9021,       190,
   66.9324,       175,
   66.9627,       183,
   66.9931,       192,
   67.0234,       214,
   67.0537,       205,
    67.084,       199,
   67.1144,       201,
   67.1447,       173,
    67.175,       215,
   67.2054,       207,
   67.2357,       177,
    67.266,       208,
   67.2963,       210,
   67.3267,       200,
    67.357,       210,
   67.3873,       196,
   67.4177,       198,
    67.448,       199,
   67.4783,       194,
   67.5086,       200,
    67.539,       218,
   67.5693,       235,
   67.5996,       237,
     67.63,       210,
   67.6603,       201,
   67.6906,       207,
   67.7209,       226,
   67.7513,       232,
   67.7816,       208,
   67.8119,       251,
   67.8423,       219,
   67.8726,       205,
   67.9029,       193,
   67.9332,       191,
   67.9636,       211,
   67.9939,       185,
   68.0242,       194,
   68.0546,       244,
   68.0849,       243,
   68.1152,       217,
   68.1455,       201,
   68.1759,       219,
   68.2062,       181,
   68.2365,       209,
   68.2668,       217,
   68.2972,       167,
   68.3275,       184,
   68.3578,       185,
   68.3882,       186,
   68.4185,       202,
   68.4488,       222,
   68.4791,       205,
   68.5095,       179,
   68.5398,       205,
   68.5701,       229,
   68.6005,       231,
   68.6308,       230,
   68.6611,       237,
   68.6914,       227,
   68.7218,       242,
   68.7521,       219,
   68.7824,       221,
   68.8128,       230,
   68.8431,       232,
   68.8734,       210,
   68.9037,       236,
   68.9341,       245,
   68.9644,       227,
   68.9947,       238,
   69.0251,       226,
   69.0554,       228,
   69.0857,       226,
    69.116,       246,
   69.1464,       234,
   69.1767,       233,
    69.207,       204,
   69.2373,       214,
   69.2677,       160,
    69.298,       196,
   69.3283,       207,
   69.3587,       213,
    69.389,       213,
   69.4193,       207,
   69.4496,       214,
     69.48,       213,
   69.5103,       212,
   69.5406,       206,
    69.571,       174,
   69.6013,       175,
   69.6316,       206,
   69.6619,       177,
   69.6923,       187,
   69.7226,       204,
   69.7529,       211,
   69.7833,       228,
   69.8136,       201,
   69.8439,       199,
   69.8742,       224,
   69.9046,       235,
   69.9349,       216,
   69.9652,       211,
   69.9956,       195,
