;RAW4.00
[RawHeader]
Date=04/20/2019
EstimatedTotalTime=2311.1
FurtherDQLReading=0
HardwareIndicator=65519
MeasuredTotalTime=2311.1
MeasurementFlag=1
NumberOfMeasuredRanges=1
NumberOfRanges=1
Time=18:42:49

[VarInfo]
Type=USER
Flags=0
Value=Bruker Service

[VarInfo]
Type=SAMPLEID
Flags=0
Value=Commander Sample ID

[VarInfo]
Type=COMMENT
Flags=0
Value=

[VarInfo]
Type=UTF
Flags=0
Value=

[VarInfo]
Type=CREATOR
Flags=0
Value=BrmlToV4Converter

[VarInfo]
Type=CREATOR_VERSION
Flags=0
Value=7.3.0.0

[HardwareConfiguration]
AbsorptionFactor=9999
ActivateAbsorber=0
Alpha1=1.78897
Alpha2=1.79285
AlphaAverage=1.79026
AlphaRatio=0.5
Analyzer=0
Anode=Co
AntiScatteringSlit=9999
BeamOpticsFlags=0
Beta=1.62079
BetaRelativeIntensity=0
DeactivateAbsorber=0
DetectorSlit=9999
DivergenceSlit=1
GoniometerControl=0
GoniometerDiameter=282
GoniometerModel=256
GoniometerStage=7
Monochromator=0
NearSampleSlit=9999
PrimarySollerSlit=9999
SampleChanger=0
SecondSollerSlit=9999
SynchronousAxis=0
ThinFilmAttachment=9999
WaveUnit=A

[RangeHeader]
ActuallyUsedLambda=1.79026
AdditionalDetectorMask=257
DataRecordLength=4
DelayTime=0
DisplayPlaneNumber=0
EstimatedScanTime=2311
ExtraParametersMask=0
GeneratorCurrent=10
GeneratorVoltage=30
Increment=0.0303281
Increment3=0
NumberOfCompletedData=2144
NumberOfCounts=1
NumberOfDetectors=0
NumberOfDrives=2
NumberOfEncoderDrives=0
NumberOfMeasuredData=2144
NumberOfVaryingParameters=0
RangeStartTime=0
RotationSpeed=1
ScanMode=1
ScanType=Locked Coupled
SimulatedMeasConditions=0
SlitChangerIn=0
SmootingWidth=0
Start=5.00234
Steps=2144
SynchronousRotation=0
Time=165

[VarInfo]
Type=PSD_DISCRIM
Flags=0
Value=0.11;0.25

[PSD]
ActualTwoTheta=9999
FirstUsedChannel=0
FixedPSD=0
PSDOpening=5.00414
PSDType=5

[Drive]
DriveFlags=1
DriveName=2Theta
DriveNumber=2
DriveOffset=0
OffsetIndex=0
OscillationAmplitude=0
OscillationSpeed=0
StartPosition=5.00234

[Drive]
DriveFlags=1
DriveName=Theta
DriveNumber=1
DriveOffset=0
OffsetIndex=0
OscillationAmplitude=0
OscillationSpeed=0
StartPosition=2.50117

[Data]
     Angle,       PSD,
   5.00234,      8660,
   5.03267,      8523,
     5.063,      8394,
   5.09333,      8432,
   5.12365,      8232,
   5.15398,      8191,
   5.18431,      8075,
   5.21464,      7860,
   5.24497,      7867,
   5.27529,      7785,
   5.30562,      7566,
   5.33595,      7585,
   5.36628,      7344,
   5.39661,      7269,
   5.42694,      7247,
   5.45726,      7045,
   5.48759,      6993,
   5.51792,      6994,
   5.54825,      6838,
   5.57858,      6534,
    5.6089,      6518,
   5.63923,      6408,
   5.66956,      6288,
   5.69989,      6012,
   5.73022,      5823,
   5.76055,      5659,
   5.79087,      5532,
    5.8212,      5347,
   5.85153,      5270,
   5.88186,      5226,
   5.91219,      5097,
   5.94251,      5097,
   5.97284,      4895,
   6.00317,      4969,
    6.0335,      4888,
   6.06383,      4818,
   6.09415,      4591,
   6.12448,      4560,
   6.15481,      4560,
   6.18514,      4466,
   6.21547,      4471,
    6.2458,      4499,
   6.27612,      4469,
   6.30645,      4395,
   6.33678,      4163,
   6.36711,      4244,
   6.39744,      4103,
   6.42776,      4036,
   6.45809,      4060,
   6.48842,      4074,
   6.51875,      4043,
   6.54908,      3999,
    6.5794,      3764,
   6.60973,      3757,
   6.64006,      3856,
   6.67039,      3755,
   6.70072,      3609,
   6.73105,      3542,
   6.76137,      3521,
    6.7917,      3546,
   6.82203,      3406,
   6.85236,      3526,
   6.88269,      3411,
   6.91301,      3258,
   6.94334,      3313,
   6.97367,      3081,
     7.004,      3284,
   7.03433,      3224,
   7.06466,      3168,
   7.09498,      3092,
   7.12531,      3018,
   7.15564,      3051,
   7.18597,      3093,
    7.2163,      2919,
   7.24662,      2832,
   7.27695,      2836,
   7.30728,      2872,
   7.33761,      2768,
   7.36794,      2783,
   7.39826,      2749,
   7.42859,      2747,
   7.45892,      2641,
   7.48925,      2721,
   7.51958,      2631,
   7.54991,      2601,
   7.58023,      2477,
   7.61056,      2469,
   7.64089,      2473,
   7.67122,      2483,
   7.70155,      2468,
   7.73187,      2456,
    7.7622,      2392,
   7.79253,      2491,
   7.82286,      2462,
   7.85319,      2282,
   7.88352,      2247,
   7.91384,      2186,
   7.94417,      2125,
    7.9745,      2279,
   8.00483,      2145,
   8.03516,      2110,
   8.06548,      2145,
   8.09581,      2114,
   8.12614,      2109,
   8.15647,      2174,
    8.1868,      2126,
   8.21712,      2037,
   8.24745,      1995,
   8.27778,      1973,
   8.30811,      1965,
   8.33844,      1926,
   8.36877,      1965,
   8.39909,      1833,
   8.42942,      1959,
   8.45975,      1855,
   8.49008,      1820,
   8.52041,      1779,
   8.55073,      1807,
   8.58106,      1805,
   8.61139,      1797,
   8.64172,      1750,
   8.67205,      1758,
   8.70237,      1704,
    8.7327,      1714,
   8.76303,      1653,
   8.79336,      1690,
   8.82369,      1669,
   8.85402,      1637,
   8.88434,      1649,
   8.91467,      1578,
     8.945,      1557,
   8.97533,      1553,
   9.00566,      1584,
   9.03598,      1559,
   9.06631,      1513,
   9.09664,      1523,
   9.12697,      1445,
    9.1573,      1446,
   9.18763,      1610,
   9.21795,      1459,
   9.24828,      1487,
   9.27861,      1465,
   9.30894,      1484,
   9.33927,      1469,
   9.36959,      1439,
   9.39992,      1388,
   9.43025,      1407,
   9.46058,      1450,
   9.49091,      1416,
   9.52123,      1342,
   9.55156,      1346,
   9.58189,      1404,
   9.61222,      1379,
   9.64255,      1286,
   9.67288,      1350,
    9.7032,      1381,
   9.73353,      1391,
   9.76386,      1287,
   9.79419,      1313,
   9.82452,      1316,
   9.85484,      1329,
   9.88517,      1272,
    9.9155,      1306,
   9.94583,      1318,
   9.97616,      1278,
   10.0065,      1293,
   10.0368,      1273,
   10.0671,      1262,
   10.0975,      1316,
   10.1278,      1290,
   10.1581,      1277,
   10.1885,      1298,
   10.2188,      1210,
   10.2491,      1218,
   10.2794,      1293,
   10.3098,      1224,
   10.3401,      1239,
   10.3704,      1274,
   10.4008,      1156,
   10.4311,      1191,
   10.4614,      1183,
   10.4917,      1248,
   10.5221,      1199,
   10.5524,      1186,
   10.5827,      1145,
    10.613,      1199,
   10.6434,      1186,
   10.6737,      1142,
    10.704,      1175,
   10.7344,      1116,
   10.7647,      1124,
    10.795,      1091,
   10.8253,      1190,
   10.8557,      1123,
    10.886,      1220,
   10.9163,      1166,
   10.9467,      1101,
    10.977,      1170,
   11.0073,      1122,
   11.0376,      1084,
    11.068,      1063,
   11.0983,      1135,
   11.1286,      1108,
    11.159,      1049,
   11.1893,      1088,
   11.2196,      1093,
   11.2499,      1132,
   11.2803,      1083,
   11.3106,      1102,
   11.3409,      1121,
   11.3713,      1048,
   11.4016,      1018,
   11.4319,      1078,
   11.4622,      1081,
   11.4926,      1128,
   11.5229,      1027,
   11.5532,      1046,
   11.5835,      1103,
   11.6139,      1016,
   11.6442,       989,
   11.6745,      1062,
   11.7049,      1067,
   11.7352,      1120,
   11.7655,       997,
   11.7958,      1069,
   11.8262,      1090,
   11.8565,      1030,
   11.8868,      1001,
   11.9172,       986,
   11.9475,      1037,
   11.9778,       975,
   12.0081,      1061,
   12.0385,      1060,
   12.0688,      1064,
   12.0991,      1035,
   12.1295,      1056,
   12.1598,       969,
   12.1901,      1005,
   12.2204,       931,
   12.2508,      1029,
   12.2811,       914,
   12.3114,       988,
   12.3418,       942,
   12.3721,      1018,
   12.4024,      1007,
   12.4327,      1008,
   12.4631,       974,
   12.4934,       996,
   12.5237,       985,
    12.554,       956,
   12.5844,       988,
   12.6147,       939,
    12.645,       962,
   12.6754,       961,
   12.7057,       985,
    12.736,       979,
   12.7663,      1020,
   12.7967,       974,
    12.827,      1008,
   12.8573,       978,
   12.8877,       955,
    12.918,       955,
   12.9483,       944,
   12.9786,       936,
    13.009,       937,
   13.0393,       955,
   13.0696,       959,
      13.1,       909,
   13.1303,       967,
   13.1606,       925,
   13.1909,       969,
   13.2213,       948,
   13.2516,       964,
   13.2819,       991,
   13.3123,       958,
   13.3426,      1024,
   13.3729,      1052,
   13.4032,      1114,
   13.4336,      1249,
   13.4639,      1414,
   13.4942,      1605,
   13.5245,      1554,
   13.5549,      1378,
   13.5852,      1119,
   13.6155,       948,
   13.6459,       964,
   13.6762,       940,
   13.7065,       920,
   13.7368,       888,
   13.7672,       925,
   13.7975,       862,
   13.8278,       912,
   13.8582,       927,
   13.8885,       932,
   13.9188,       819,
   13.9491,       852,
   13.9795,       882,
   14.0098,       895,
   14.0401,       872,
   14.0705,       852,
   14.1008,       874,
   14.1311,       827,
   14.1614,       909,
   14.1918,       917,
   14.2221,       867,
   14.2524,       859,
   14.2828,       841,
   14.3131,       882,
   14.3434,       886,
   14.3737,       822,
   14.4041,       837,
   14.4344,       861,
   14.4647,       824,
   14.4951,       806,
   14.5254,       820,
   14.5557,       842,
    14.586,       909,
   14.6164,       884,
   14.6467,       784,
    14.677,       850,
   14.7073,       826,
   14.7377,       868,
    14.768,       818,
   14.7983,       852,
   14.8287,       810,
    14.859,       826,
   14.8893,       796,
   14.9196,       790,
     14.95,       786,
   14.9803,       835,
   15.0106,       852,
    15.041,       789,
   15.0713,       788,
   15.1016,       815,
   15.1319,       795,
   15.1623,       845,
   15.1926,       781,
   15.2229,       791,
   15.2533,       828,
   15.2836,       806,
   15.3139,       781,
   15.3442,       822,
   15.3746,       805,
   15.4049,       803,
   15.4352,       746,
   15.4656,       755,
   15.4959,       766,
   15.5262,       773,
   15.5565,       810,
   15.5869,       742,
   15.6172,       776,
   15.6475,       786,
   15.6778,       744,
   15.7082,       761,
   15.7385,       767,
   15.7688,       799,
   15.7992,       734,
   15.8295,       777,
   15.8598,       687,
   15.8901,       790,
   15.9205,       753,
   15.9508,       757,
   15.9811,       754,
   16.0115,       755,
   16.0418,       732,
   16.0721,       766,
   16.1024,       724,
   16.1328,       721,
   16.1631,       798,
   16.1934,       761,
   16.2238,       818,
   16.2541,       764,
   16.2844,       774,
   16.3147,       762,
   16.3451,       720,
   16.3754,       804,
   16.4057,       725,
   16.4361,       731,
   16.4664,       719,
   16.4967,       734,
    16.527,       767,
   16.5574,       748,
   16.5877,       795,
    16.618,       873,
   16.6483,       985,
   16.6787,       999,
    16.709,       895,
   16.7393,       757,
   16.7697,       722,
      16.8,       736,
   16.8303,       709,
   16.8606,       753,
    16.891,       740,
   16.9213,       723,
   16.9516,       706,
    16.982,       677,
   17.0123,       705,
   17.0426,       760,
   17.0729,       707,
   17.1033,       715,
   17.1336,       718,
   17.1639,       725,
   17.1943,       735,
   17.2246,       738,
   17.2549,       696,
   17.2852,       685,
   17.3156,       712,
   17.3459,       700,
   17.3762,       687,
   17.4066,       689,
   17.4369,       687,
   17.4672,       687,
   17.4975,       663,
   17.5279,       703,
   17.5582,       616,
   17.5885,       679,
   17.6188,       711,
   17.6492,       689,
   17.6795,       670,
   17.7098,       683,
   17.7402,       640,
   17.7705,       690,
   17.8008,       676,
   17.8311,       705,
   17.8615,       668,
   17.8918,       670,
   17.9221,       660,
   17.9525,       625,
   17.9828,       669,
   18.0131,       719,
   18.0434,       707,
   18.0738,       690,
   18.1041,       708,
   18.1344,       647,
   18.1648,       691,
   18.1951,       637,
   18.2254,       612,
   18.2557,       679,
   18.2861,       662,
   18.3164,       674,
   18.3467,       664,
   18.3771,       669,
   18.4074,       689,
   18.4377,       674,
    18.468,       602,
   18.4984,       645,
   18.5287,       684,
    18.559,       675,
   18.5893,       684,
   18.6197,       670,
     18.65,       626,
   18.6803,       634,
   18.7107,       638,
    18.741,       622,
   18.7713,       643,
   18.8016,       674,
    18.832,       616,
   18.8623,       648,
   18.8926,       668,
    18.923,       687,
   18.9533,       662,
   18.9836,       590,
   19.0139,       617,
   19.0443,       606,
   19.0746,       671,
   19.1049,       640,
   19.1353,       626,
   19.1656,       710,
   19.1959,       638,
   19.2262,       614,
   19.2566,       565,
   19.2869,       606,
   19.3172,       609,
   19.3476,       657,
   19.3779,       633,
   19.4082,       629,
   19.4385,       615,
   19.4689,       633,
   19.4992,       633,
   19.5295,       613,
   19.5599,       633,
   19.5902,       592,
   19.6205,       627,
   19.6508,       607,
   19.6812,       627,
   19.7115,       651,
   19.7418,       607,
   19.7721,       609,
   19.8025,       624,
   19.8328,       631,
   19.8631,       640,
   19.8935,       607,
   19.9238,       584,
   19.9541,       621,
   19.9844,       646,
   20.0148,       596,
   20.0451,       621,
   20.0754,       583,
   20.1058,       627,
   20.1361,       669,
   20.1664,       584,
   20.1967,       639,
   20.2271,       651,
   20.2574,       584,
   20.2877,       592,
   20.3181,       637,
   20.3484,       636,
   20.3787,       582,
    20.409,       619,
   20.4394,       587,
   20.4697,       605,
      20.5,       624,
   20.5304,       622,
   20.5607,       584,
    20.591,       621,
   20.6213,       631,
   20.6517,       587,
    20.682,       590,
   20.7123,       649,
   20.7426,       592,
    20.773,       643,
   20.8033,       617,
   20.8336,       589,
    20.864,       630,
   20.8943,       566,
   20.9246,       575,
   20.9549,       624,
   20.9853,       583,
   21.0156,       613,
   21.0459,       554,
   21.0763,       571,
   21.1066,       581,
   21.1369,       589,
   21.1672,       594,
   21.1976,       629,
   21.2279,       597,
   21.2582,       623,
   21.2886,       604,
   21.3189,       639,
   21.3492,       550,
   21.3795,       535,
   21.4099,       596,
   21.4402,       558,
   21.4705,       573,
   21.5009,       553,
   21.5312,       565,
   21.5615,       565,
   21.5918,       577,
   21.6222,       593,
   21.6525,       568,
   21.6828,       647,
   21.7131,       567,
   21.7435,       592,
   21.7738,       545,
   21.8041,       593,
   21.8345,       579,
   21.8648,       626,
   21.8951,       594,
   21.9254,       609,
   21.9558,       595,
   21.9861,       595,
   22.0164,       582,
   22.0468,       622,
   22.0771,       624,
   22.1074,       575,
   22.1377,       536,
   22.1681,       566,
   22.1984,       583,
   22.2287,       591,
   22.2591,       584,
   22.2894,       551,
   22.3197,       590,
     22.35,       597,
   22.3804,       563,
   22.4107,       580,
    22.441,       573,
   22.4714,       533,
   22.5017,       604,
    22.532,       554,
   22.5623,       583,
   22.5927,       567,
    22.623,       576,
   22.6533,       595,
   22.6836,       607,
    22.714,       598,
   22.7443,       559,
   22.7746,       601,
    22.805,       642,
   22.8353,       654,
   22.8656,       637,
   22.8959,       657,
   22.9263,       670,
   22.9566,       622,
   22.9869,       581,
   23.0173,       630,
   23.0476,       694,
   23.0779,       633,
   23.1082,       626,
   23.1386,       640,
   23.1689,       611,
   23.1992,       633,
   23.2296,       641,
   23.2599,       639,
   23.2902,       590,
   23.3205,       641,
   23.3509,       684,
   23.3812,       691,
   23.4115,       618,
   23.4419,       626,
   23.4722,       610,
   23.5025,       593,
   23.5328,       558,
   23.5632,       559,
   23.5935,       585,
   23.6238,       535,
   23.6541,       553,
   23.6845,       588,
   23.7148,       602,
   23.7451,       577,
   23.7755,       592,
   23.8058,       596,
   23.8361,       599,
   23.8664,       585,
   23.8968,       593,
   23.9271,       582,
   23.9574,       608,
   23.9878,       660,
   24.0181,       702,
   24.0484,       781,
   24.0787,       930,
   24.1091,      1155,
   24.1394,      1064,
   24.1697,       999,
   24.2001,       831,
   24.2304,       793,
   24.2607,       702,
    24.291,       713,
   24.3214,       633,
   24.3517,       586,
    24.382,       579,
   24.4124,       609,
   24.4427,       600,
    24.473,       553,
   24.5033,       563,
   24.5337,       595,
    24.564,       588,
   24.5943,       591,
   24.6246,       542,
    24.655,       560,
   24.6853,       507,
   24.7156,       563,
    24.746,       506,
   24.7763,       541,
   24.8066,       556,
   24.8369,       543,
   24.8673,       535,
   24.8976,       539,
   24.9279,       550,
   24.9583,       571,
   24.9886,       554,
   25.0189,       503,
   25.0492,       528,
   25.0796,       526,
   25.1099,       504,
   25.1402,       506,
   25.1706,       521,
   25.2009,       506,
   25.2312,       561,
   25.2615,       548,
   25.2919,       551,
   25.3222,       555,
   25.3525,       521,
   25.3829,       568,
   25.4132,       476,
   25.4435,       547,
   25.4738,       503,
   25.5042,       516,
   25.5345,       525,
   25.5648,       476,
   25.5952,       526,
   25.6255,       533,
   25.6558,       534,
   25.6861,       483,
   25.7165,       547,
   25.7468,       483,
   25.7771,       520,
   25.8074,       500,
   25.8378,       511,
   25.8681,       542,
   25.8984,       548,
   25.9288,       485,
   25.9591,       518,
   25.9894,       520,
   26.0197,       515,
   26.0501,       504,
   26.0804,       483,
   26.1107,       515,
   26.1411,       542,
   26.1714,       483,
   26.2017,       497,
    26.232,       511,
   26.2624,       491,
   26.2927,       500,
    26.323,       513,
   26.3534,       501,
   26.3837,       483,
    26.414,       470,
   26.4443,       486,
   26.4747,       531,
    26.505,       527,
   26.5353,       528,
   26.5657,       489,
    26.596,       508,
   26.6263,       484,
   26.6566,       517,
    26.687,       505,
   26.7173,       460,
   26.7476,       554,
   26.7779,       541,
   26.8083,       510,
   26.8386,       544,
   26.8689,       570,
   26.8993,       551,
   26.9296,       616,
   26.9599,       599,
   26.9902,       631,
   27.0206,       729,
   27.0509,       766,
   27.0812,       861,
   27.1116,       955,
   27.1419,      1036,
   27.1722,      1168,
   27.2025,      1245,
   27.2329,      1228,
   27.2632,      1057,
   27.2935,       958,
   27.3239,       847,
   27.3542,       765,
   27.3845,       712,
   27.4148,       667,
   27.4452,       646,
   27.4755,       621,
   27.5058,       598,
   27.5362,       584,
   27.5665,       584,
   27.5968,       601,
   27.6271,       569,
   27.6575,       527,
   27.6878,       556,
   27.7181,       472,
   27.7484,       536,
   27.7788,       467,
   27.8091,       467,
   27.8394,       540,
   27.8698,       550,
   27.9001,       449,
   27.9304,       505,
   27.9607,       504,
   27.9911,       516,
   28.0214,       514,
   28.0517,       483,
   28.0821,       494,
   28.1124,       526,
   28.1427,       490,
    28.173,       479,
   28.2034,       477,
   28.2337,       489,
    28.264,       459,
   28.2944,       446,
   28.3247,       435,
    28.355,       502,
   28.3853,       477,
   28.4157,       464,
    28.446,       456,
   28.4763,       480,
   28.5067,       451,
    28.537,       468,
   28.5673,       505,
   28.5976,       501,
    28.628,       505,
   28.6583,       453,
   28.6886,       460,
   28.7189,       519,
   28.7493,       467,
   28.7796,       470,
   28.8099,       477,
   28.8403,       431,
   28.8706,       434,
   28.9009,       457,
   28.9312,       432,
   28.9616,       451,
   28.9919,       449,
   29.0222,       489,
   29.0526,       456,
   29.0829,       421,
   29.1132,       478,
   29.1435,       471,
   29.1739,       450,
   29.2042,       487,
   29.2345,       504,
   29.2649,       429,
   29.2952,       470,
   29.3255,       481,
   29.3558,       463,
   29.3862,       474,
   29.4165,       520,
   29.4468,       454,
   29.4772,       493,
   29.5075,       499,
   29.5378,       430,
   29.5681,       500,
   29.5985,       436,
   29.6288,       467,
   29.6591,       496,
   29.6894,       450,
   29.7198,       452,
   29.7501,       488,
   29.7804,       476,
   29.8108,       485,
   29.8411,       442,
   29.8714,       469,
   29.9017,       482,
   29.9321,       498,
   29.9624,       506,
   29.9927,       475,
   30.0231,       524,
   30.0534,       534,
   30.0837,       463,
    30.114,       504,
   30.1444,       506,
   30.1747,       536,
    30.205,       574,
   30.2354,       598,
   30.2657,       655,
    30.296,       666,
   30.3263,       691,
   30.3567,       804,
    30.387,       934,
   30.4173,      1134,
   30.4477,      1422,
    30.478,      1943,
   30.5083,      2428,
   30.5386,      2455,
    30.569,      2103,
   30.5993,      1801,
   30.6296,      1355,
     30.66,      1057,
   30.6903,       859,
   30.7206,       790,
   30.7509,       674,
   30.7813,       675,
   30.8116,       651,
   30.8419,       597,
   30.8722,       567,
   30.9026,       633,
   30.9329,       579,
   30.9632,       569,
   30.9936,       710,
   31.0239,       697,
   31.0542,       668,
   31.0845,       697,
   31.1149,       580,
   31.1452,       556,
   31.1755,       570,
   31.2059,       536,
   31.2362,       571,
   31.2665,       577,
   31.2968,       592,
   31.3272,       573,
   31.3575,       617,
   31.3878,       665,
   31.4182,       717,
   31.4485,       663,
   31.4788,       714,
   31.5091,       702,
   31.5395,       783,
   31.5698,       839,
   31.6001,       921,
   31.6305,      1122,
   31.6608,      1272,
   31.6911,      1392,
   31.7214,      1375,
   31.7518,      1190,
   31.7821,       980,
   31.8124,       901,
   31.8427,       694,
   31.8731,       657,
   31.9034,       581,
   31.9337,       584,
   31.9641,       578,
   31.9944,       558,
   32.0247,       531,
    32.055,       501,
   32.0854,       502,
   32.1157,       500,
    32.146,       488,
   32.1764,       423,
   32.2067,       473,
    32.237,       460,
   32.2673,       461,
   32.2977,       485,
    32.328,       418,
   32.3583,       442,
   32.3887,       433,
    32.419,       421,
   32.4493,       507,
   32.4796,       450,
     32.51,       458,
   32.5403,       436,
   32.5706,       451,
    32.601,       458,
   32.6313,       434,
   32.6616,       473,
   32.6919,       449,
   32.7223,       452,
   32.7526,       399,
   32.7829,       452,
   32.8132,       443,
   32.8436,       428,
   32.8739,       474,
   32.9042,       425,
   32.9346,       388,
   32.9649,       441,
   32.9952,       455,
   33.0255,       408,
   33.0559,       446,
   33.0862,       434,
   33.1165,       442,
   33.1469,       416,
   33.1772,       418,
   33.2075,       418,
   33.2378,       415,
   33.2682,       455,
   33.2985,       433,
   33.3288,       414,
   33.3592,       404,
   33.3895,       452,
   33.4198,       449,
   33.4501,       438,
   33.4805,       435,
   33.5108,       442,
   33.5411,       408,
   33.5715,       439,
   33.6018,       443,
   33.6321,       503,
   33.6624,       472,
   33.6928,       490,
   33.7231,       492,
   33.7534,       520,
   33.7837,       540,
   33.8141,       568,
   33.8444,       625,
   33.8747,       694,
   33.9051,       757,
   33.9354,       729,
   33.9657,       775,
    33.996,       697,
   34.0264,       675,
   34.0567,       632,
    34.087,       608,
   34.1174,       601,
   34.1477,       622,
    34.178,       673,
   34.2083,       660,
   34.2387,       818,
    34.269,       940,
   34.2993,      1110,
   34.3297,      1233,
     34.36,      1304,
   34.3903,      1250,
   34.4206,      1352,
    34.451,      1361,
   34.4813,      1559,
   34.5116,      1786,
    34.542,      2215,
   34.5723,      2665,
   34.6026,      3320,
   34.6329,      4015,
   34.6633,      4801,
   34.6936,      5465,
   34.7239,      5923,
   34.7542,      5985,
   34.7846,      5829,
   34.8149,      5547,
   34.8452,      4945,
   34.8756,      4411,
   34.9059,      3693,
   34.9362,      3257,
   34.9665,      2831,
   34.9969,      2501,
   35.0272,      2151,
   35.0575,      1860,
   35.0879,      1696,
   35.1182,      1475,
   35.1485,      1303,
   35.1788,      1218,
   35.2092,      1188,
   35.2395,      1083,
   35.2698,      1021,
   35.3002,       986,
   35.3305,       881,
   35.3608,       918,
   35.3911,       809,
   35.4215,       857,
   35.4518,       821,
   35.4821,       737,
   35.5125,       750,
   35.5428,       734,
   35.5731,       772,
   35.6034,       705,
   35.6338,       737,
   35.6641,       702,
   35.6944,       633,
   35.7248,       657,
   35.7551,       667,
   35.7854,       656,
   35.8157,       685,
   35.8461,       695,
   35.8764,       676,
   35.9067,       660,
    35.937,       751,
   35.9674,       623,
   35.9977,       659,
    36.028,       649,
   36.0584,       726,
   36.0887,       680,
    36.119,       629,
   36.1493,       643,
   36.1797,       658,
     36.21,       717,
   36.2403,       813,
   36.2707,       767,
    36.301,       713,
   36.3313,       683,
   36.3616,       601,
    36.392,       576,
   36.4223,       524,
   36.4526,       482,
    36.483,       446,
   36.5133,       499,
   36.5436,       476,
   36.5739,       453,
   36.6043,       442,
   36.6346,       437,
   36.6649,       421,
   36.6953,       452,
   36.7256,       439,
   36.7559,       413,
   36.7862,       393,
   36.8166,       398,
   36.8469,       415,
   36.8772,       423,
   36.9075,       411,
   36.9379,       441,
   36.9682,       427,
   36.9985,       435,
   37.0289,       448,
   37.0592,       523,
   37.0895,       469,
   37.1198,       457,
   37.1502,       517,
   37.1805,       486,
   37.2108,       502,
   37.2412,       470,
   37.2715,       532,
   37.3018,       483,
   37.3321,       475,
   37.3625,       479,
   37.3928,       510,
   37.4231,       483,
   37.4535,       516,
   37.4838,       522,
   37.5141,       476,
   37.5444,       466,
   37.5748,       479,
   37.6051,       564,
   37.6354,       527,
   37.6658,       460,
   37.6961,       466,
   37.7264,       490,
   37.7567,       433,
   37.7871,       415,
   37.8174,       401,
   37.8477,       431,
    37.878,       390,
   37.9084,       416,
   37.9387,       428,
    37.969,       453,
   37.9994,       436,
   38.0297,       429,
     38.06,       435,
   38.0903,       461,
   38.1207,       454,
    38.151,       484,
   38.1813,       496,
   38.2117,       538,
    38.242,       480,
   38.2723,       533,
   38.3026,       473,
    38.333,       514,
   38.3633,       525,
   38.3936,       502,
    38.424,       536,
   38.4543,       530,
   38.4846,       616,
   38.5149,       665,
   38.5453,       796,
   38.5756,       982,
   38.6059,      1168,
   38.6363,      1183,
   38.6666,      1078,
   38.6969,       985,
   38.7272,       837,
   38.7576,       721,
   38.7879,       614,
   38.8182,       554,
   38.8485,       507,
   38.8789,       517,
   38.9092,       550,
   38.9395,       570,
   38.9699,       543,
   39.0002,       482,
   39.0305,       507,
   39.0608,       460,
   39.0912,       430,
   39.1215,       413,
   39.1518,       396,
   39.1822,       373,
   39.2125,       354,
   39.2428,       403,
   39.2731,       372,
   39.3035,       405,
   39.3338,       403,
   39.3641,       370,
   39.3945,       365,
   39.4248,       353,
   39.4551,       390,
   39.4854,       369,
   39.5158,       371,
   39.5461,       346,
   39.5764,       341,
   39.6068,       391,
   39.6371,       389,
   39.6674,       335,
   39.6977,       304,
   39.7281,       350,
   39.7584,       330,
   39.7887,       366,
    39.819,       352,
   39.8494,       356,
   39.8797,       379,
     39.91,       371,
   39.9404,       360,
   39.9707,       376,
    40.001,       349,
   40.0313,       370,
   40.0617,       358,
    40.092,       362,
   40.1223,       382,
   40.1527,       390,
    40.183,       345,
   40.2133,       403,
   40.2436,       403,
    40.274,       373,
   40.3043,       402,
   40.3346,       403,
    40.365,       384,
   40.3953,       369,
   40.4256,       353,
   40.4559,       370,
   40.4863,       382,
   40.5166,       380,
   40.5469,       367,
   40.5773,       367,
   40.6076,       369,
   40.6379,       377,
   40.6682,       345,
   40.6986,       365,
   40.7289,       359,
   40.7592,       350,
   40.7895,       386,
   40.8199,       357,
   40.8502,       356,
   40.8805,       404,
   40.9109,       378,
   40.9412,       359,
   40.9715,       375,
   41.0018,       373,
   41.0322,       335,
   41.0625,       385,
   41.0928,       382,
   41.1232,       380,
   41.1535,       378,
   41.1838,       382,
   41.2141,       355,
   41.2445,       354,
   41.2748,       415,
   41.3051,       363,
   41.3355,       347,
   41.3658,       368,
   41.3961,       380,
   41.4264,       368,
   41.4568,       363,
   41.4871,       388,
   41.5174,       365,
   41.5478,       388,
   41.5781,       402,
   41.6084,       390,
   41.6387,       363,
   41.6691,       396,
   41.6994,       383,
   41.7297,       410,
   41.7601,       403,
   41.7904,       426,
   41.8207,       401,
    41.851,       449,
   41.8814,       438,
   41.9117,       479,
    41.942,       507,
   41.9723,       531,
   42.0027,       597,
    42.033,       612,
   42.0633,       673,
   42.0937,       725,
    42.124,       864,
   42.1543,       865,
   42.1846,       819,
    42.215,       869,
   42.2453,       793,
   42.2756,       740,
    42.306,       711,
   42.3363,       717,
   42.3666,       701,
   42.3969,       800,
   42.4273,       797,
   42.4576,       856,
   42.4879,       983,
   42.5183,       953,
   42.5486,      1002,
   42.5789,      1011,
   42.6092,      1012,
   42.6396,       912,
   42.6699,       906,
   42.7002,       842,
   42.7306,       788,
   42.7609,       704,
   42.7912,       647,
   42.8215,       572,
   42.8519,       564,
   42.8822,       533,
   42.9125,       484,
   42.9428,       501,
   42.9732,       470,
   43.0035,       436,
   43.0338,       415,
   43.0642,       411,
   43.0945,       445,
   43.1248,       441,
   43.1551,       396,
   43.1855,       391,
   43.2158,       408,
   43.2461,       409,
   43.2765,       427,
   43.3068,       419,
   43.3371,       402,
   43.3674,       429,
   43.3978,       409,
   43.4281,       463,
   43.4584,       491,
   43.4888,       516,
   43.5191,       507,
   43.5494,       518,
   43.5797,       508,
   43.6101,       511,
   43.6404,       495,
   43.6707,       489,
   43.7011,       432,
   43.7314,       447,
   43.7617,       392,
    43.792,       418,
   43.8224,       396,
   43.8527,       369,
    43.883,       393,
   43.9133,       371,
   43.9437,       406,
    43.974,       410,
   44.0043,       421,
   44.0347,       435,
    44.065,       451,
   44.0953,       418,
   44.1256,       519,
    44.156,       563,
   44.1863,       718,
   44.2166,       826,
    44.247,       876,
   44.2773,       819,
   44.3076,       788,
   44.3379,       741,
   44.3683,       656,
   44.3986,       577,
   44.4289,       548,
   44.4593,       490,
   44.4896,       483,
   44.5199,       410,
   44.5502,       441,
   44.5806,       429,
   44.6109,       413,
   44.6412,       452,
   44.6716,       441,
   44.7019,       439,
   44.7322,       421,
   44.7625,       486,
   44.7929,       496,
   44.8232,       598,
   44.8535,       633,
   44.8838,       663,
   44.9142,       680,
   44.9445,       633,
   44.9748,       631,
   45.0052,       612,
   45.0355,       601,
   45.0658,       622,
   45.0961,       637,
   45.1265,       596,
   45.1568,       588,
   45.1871,       505,
   45.2175,       505,
   45.2478,       449,
   45.2781,       404,
   45.3084,       402,
   45.3388,       419,
   45.3691,       385,
   45.3994,       371,
   45.4298,       412,
   45.4601,       344,
   45.4904,       333,
   45.5207,       354,
   45.5511,       320,
   45.5814,       369,
   45.6117,       349,
   45.6421,       352,
   45.6724,       310,
   45.7027,       316,
    45.733,       354,
   45.7634,       311,
   45.7937,       315,
    45.824,       317,
   45.8543,       365,
   45.8847,       338,
    45.915,       326,
   45.9453,       343,
   45.9757,       319,
    46.006,       363,
   46.0363,       367,
   46.0666,       346,
    46.097,       347,
   46.1273,       413,
   46.1576,       426,
    46.188,       402,
   46.2183,       430,
   46.2486,       409,
   46.2789,       411,
   46.3093,       452,
   46.3396,       438,
   46.3699,       462,
   46.4003,       452,
   46.4306,       524,
   46.4609,       570,
   46.4912,       571,
   46.5216,       654,
   46.5519,       710,
   46.5822,       804,
   46.6126,       852,
   46.6429,       980,
   46.6732,      1049,
   46.7035,      1064,
   46.7339,      1041,
   46.7642,      1008,
   46.7945,      1046,
   46.8249,       935,
   46.8552,       836,
   46.8855,       868,
   46.9158,       795,
   46.9462,       735,
   46.9765,       699,
   47.0068,       651,
   47.0371,       633,
   47.0675,       570,
   47.0978,       549,
   47.1281,       534,
   47.1585,       551,
   47.1888,       491,
   47.2191,       450,
   47.2494,       445,
   47.2798,       437,
   47.3101,       394,
   47.3404,       438,
   47.3708,       385,
   47.4011,       398,
   47.4314,       366,
   47.4617,       413,
   47.4921,       413,
   47.5224,       459,
   47.5527,       398,
   47.5831,       395,
   47.6134,       380,
   47.6437,       393,
    47.674,       368,
   47.7044,       379,
   47.7347,       354,
    47.765,       385,
   47.7954,       389,
   47.8257,       383,
    47.856,       348,
   47.8863,       382,
   47.9167,       374,
    47.947,       402,
   47.9773,       340,
   48.0076,       358,
    48.038,       394,
   48.0683,       423,
   48.0986,       433,
    48.129,       439,
   48.1593,       484,
   48.1896,       451,
   48.2199,       470,
   48.2503,       425,
   48.2806,       434,
   48.3109,       401,
   48.3413,       395,
   48.3716,       393,
   48.4019,       346,
   48.4322,       366,
   48.4626,       323,
   48.4929,       358,
   48.5232,       309,
   48.5536,       348,
   48.5839,       349,
   48.6142,       338,
   48.6445,       306,
   48.6749,       331,
   48.7052,       336,
   48.7355,       332,
   48.7659,       308,
   48.7962,       300,
   48.8265,       297,
   48.8568,       331,
   48.8872,       319,
   48.9175,       304,
   48.9478,       293,
   48.9781,       293,
   49.0085,       300,
   49.0388,       300,
   49.0691,       303,
   49.0995,       314,
   49.1298,       289,
   49.1601,       302,
   49.1904,       314,
   49.2208,       291,
   49.2511,       319,
   49.2814,       303,
   49.3118,       277,
   49.3421,       319,
   49.3724,       287,
   49.4027,       271,
   49.4331,       331,
   49.4634,       316,
   49.4937,       281,
   49.5241,       292,
   49.5544,       304,
   49.5847,       309,
    49.615,       273,
   49.6454,       333,
   49.6757,       287,
    49.706,       326,
   49.7364,       323,
   49.7667,       318,
    49.797,       338,
   49.8273,       356,
   49.8577,       322,
    49.888,       302,
   49.9183,       324,
   49.9486,       312,
    49.979,       332,
   50.0093,       349,
   50.0396,       346,
     50.07,       358,
   50.1003,       390,
   50.1306,       384,
   50.1609,       461,
   50.1913,       514,
   50.2216,       543,
   50.2519,       534,
   50.2823,       552,
   50.3126,       494,
   50.3429,       524,
   50.3732,       448,
   50.4036,       420,
   50.4339,       383,
   50.4642,       393,
   50.4946,       332,
   50.5249,       337,
   50.5552,       367,
   50.5855,       359,
   50.6159,       424,
   50.6462,       392,
   50.6765,       386,
   50.7069,       403,
   50.7372,       448,
   50.7675,       421,
   50.7978,       374,
   50.8282,       432,
   50.8585,       421,
   50.8888,       429,
   50.9191,       446,
   50.9495,       497,
   50.9798,       472,
   51.0101,       508,
   51.0405,       644,
   51.0708,       653,
   51.1011,       706,
   51.1314,       786,
   51.1618,       830,
   51.1921,       859,
   51.2224,       808,
   51.2528,       883,
   51.2831,       878,
   51.3134,       828,
   51.3437,       805,
   51.3741,       751,
   51.4044,       664,
   51.4347,       687,
   51.4651,       620,
   51.4954,       609,
   51.5257,       567,
    51.556,       493,
   51.5864,       509,
   51.6167,       491,
    51.647,       462,
   51.6774,       444,
   51.7077,       445,
    51.738,       393,
   51.7683,       400,
   51.7987,       385,
    51.829,       411,
   51.8593,       378,
   51.8897,       389,
     51.92,       416,
   51.9503,       369,
   51.9806,       396,
    52.011,       376,
   52.0413,       381,
   52.0716,       378,
   52.1019,       346,
   52.1323,       336,
   52.1626,       330,
   52.1929,       343,
   52.2233,       337,
   52.2536,       363,
   52.2839,       317,
   52.3142,       330,
   52.3446,       328,
   52.3749,       352,
   52.4052,       323,
   52.4356,       322,
   52.4659,       341,
   52.4962,       382,
   52.5265,       333,
   52.5569,       322,
   52.5872,       306,
   52.6175,       305,
   52.6479,       360,
   52.6782,       349,
   52.7085,       329,
   52.7388,       351,
   52.7692,       359,
   52.7995,       305,
   52.8298,       314,
   52.8602,       323,
   52.8905,       346,
   52.9208,       349,
   52.9511,       299,
   52.9815,       308,
   53.0118,       322,
   53.0421,       331,
   53.0724,       322,
   53.1028,       345,
   53.1331,       343,
   53.1634,       329,
   53.1938,       360,
   53.2241,       366,
   53.2544,       339,
   53.2847,       409,
   53.3151,       383,
   53.3454,       402,
   53.3757,       371,
   53.4061,       403,
   53.4364,       410,
   53.4667,       415,
    53.497,       448,
   53.5274,       428,
   53.5577,       454,
    53.588,       487,
   53.6184,       515,
   53.6487,       609,
    53.679,       702,
   53.7093,       928,
   53.7397,      1017,
     53.77,       986,
   53.8003,       946,
   53.8307,       818,
    53.861,       865,
   53.8913,       741,
   53.9216,       623,
    53.952,       538,
   53.9823,       483,
   54.0126,       438,
   54.0429,       434,
   54.0733,       390,
   54.1036,       401,
   54.1339,       359,
   54.1643,       346,
   54.1946,       366,
   54.2249,       389,
   54.2552,       363,
   54.2856,       327,
   54.3159,       334,
   54.3462,       347,
   54.3766,       344,
   54.4069,       332,
   54.4372,       340,
   54.4675,       329,
   54.4979,       332,
   54.5282,       345,
   54.5585,       323,
   54.5889,       352,
   54.6192,       335,
   54.6495,       304,
   54.6798,       318,
   54.7102,       337,
   54.7405,       325,
   54.7708,       326,
   54.8012,       319,
   54.8315,       311,
   54.8618,       347,
   54.8921,       310,
   54.9225,       342,
   54.9528,       326,
   54.9831,       317,
   55.0134,       296,
   55.0438,       314,
   55.0741,       315,
   55.1044,       291,
   55.1348,       308,
   55.1651,       295,
   55.1954,       340,
   55.2257,       297,
   55.2561,       328,
   55.2864,       317,
   55.3167,       336,
   55.3471,       346,
   55.3774,       326,
   55.4077,       340,
    55.438,       333,
   55.4684,       312,
   55.4987,       326,
    55.529,       339,
   55.5594,       350,
   55.5897,       317,
     55.62,       335,
   55.6503,       337,
   55.6807,       362,
    55.711,       374,
   55.7413,       386,
   55.7717,       416,
    55.802,       454,
   55.8323,       440,
   55.8626,       446,
    55.893,       471,
   55.9233,       499,
   55.9536,       505,
   55.9839,       548,
   56.0143,       509,
   56.0446,       530,
   56.0749,       579,
   56.1053,       585,
   56.1356,       567,
   56.1659,       598,
   56.1962,       644,
   56.2266,       601,
   56.2569,       621,
   56.2872,       671,
   56.3176,       656,
   56.3479,       665,
   56.3782,       677,
   56.4085,       685,
   56.4389,       780,
   56.4692,       770,
   56.4995,       785,
   56.5299,       868,
   56.5602,       837,
   56.5905,       884,
   56.6208,       856,
   56.6512,       957,
   56.6815,       957,
   56.7118,       933,
   56.7422,       965,
   56.7725,       989,
   56.8028,       929,
   56.8331,       946,
   56.8635,       932,
   56.8938,       870,
   56.9241,       760,
   56.9544,       748,
   56.9848,       718,
   57.0151,       677,
   57.0454,       598,
   57.0758,       574,
   57.1061,       580,
   57.1364,       547,
   57.1667,       513,
   57.1971,       506,
   57.2274,       523,
   57.2577,       518,
   57.2881,       481,
   57.3184,       473,
   57.3487,       471,
    57.379,       532,
   57.4094,       506,
   57.4397,       562,
     57.47,       560,
   57.5004,       571,
   57.5307,       666,
    57.561,       628,
   57.5913,       655,
   57.6217,       704,
    57.652,       714,
   57.6823,       758,
   57.7127,       744,
    57.743,       768,
   57.7733,       756,
   57.8036,       805,
    57.834,       795,
   57.8643,       782,
   57.8946,       707,
    57.925,       696,
   57.9553,       689,
   57.9856,       732,
   58.0159,       622,
   58.0463,       602,
   58.0766,       646,
   58.1069,       557,
   58.1372,       536,
   58.1676,       525,
   58.1979,       507,
   58.2282,       550,
   58.2586,       441,
   58.2889,       462,
   58.3192,       473,
   58.3495,       471,
   58.3799,       440,
   58.4102,       463,
   58.4405,       436,
   58.4709,       420,
   58.5012,       448,
   58.5315,       422,
   58.5618,       421,
   58.5922,       408,
   58.6225,       432,
   58.6528,       386,
   58.6832,       433,
   58.7135,       418,
   58.7438,       428,
   58.7741,       395,
   58.8045,       444,
   58.8348,       493,
   58.8651,       405,
   58.8955,       499,
   58.9258,       532,
   58.9561,       561,
   58.9864,       620,
   59.0168,       514,
   59.0471,       525,
   59.0774,       525,
   59.1077,       530,
   59.1381,       507,
   59.1684,       456,
   59.1987,       433,
   59.2291,       412,
   59.2594,       424,
   59.2897,       381,
     59.32,       356,
   59.3504,       346,
   59.3807,       346,
    59.411,       313,
   59.4414,       352,
   59.4717,       317,
    59.502,       311,
   59.5323,       313,
   59.5627,       303,
    59.593,       311,
   59.6233,       280,
   59.6537,       336,
    59.684,       354,
   59.7143,       322,
   59.7446,       318,
    59.775,       330,
   59.8053,       313,
   59.8356,       325,
    59.866,       309,
   59.8963,       300,
   59.9266,       302,
   59.9569,       308,
   59.9873,       303,
   60.0176,       337,
   60.0479,       315,
   60.0782,       322,
   60.1086,       318,
   60.1389,       311,
   60.1692,       299,
   60.1996,       311,
   60.2299,       311,
   60.2602,       309,
   60.2905,       313,
   60.3209,       322,
   60.3512,       310,
   60.3815,       293,
   60.4119,       294,
   60.4422,       291,
   60.4725,       317,
   60.5028,       308,
   60.5332,       271,
   60.5635,       294,
   60.5938,       296,
   60.6242,       286,
   60.6545,       281,
   60.6848,       272,
   60.7151,       291,
   60.7455,       275,
   60.7758,       252,
   60.8061,       277,
   60.8365,       301,
   60.8668,       268,
   60.8971,       284,
   60.9274,       283,
   60.9578,       267,
   60.9881,       306,
   61.0184,       310,
   61.0487,       293,
   61.0791,       303,
   61.1094,       308,
   61.1397,       296,
   61.1701,       318,
   61.2004,       281,
   61.2307,       292,
    61.261,       291,
   61.2914,       308,
   61.3217,       313,
    61.352,       299,
   61.3824,       310,
   61.4127,       282,
    61.443,       323,
   61.4733,       337,
   61.5037,       333,
    61.534,       342,
   61.5643,       403,
   61.5947,       404,
    61.625,       501,
   61.6553,       544,
   61.6856,       502,
    61.716,       489,
   61.7463,       486,
   61.7766,       461,
    61.807,       437,
   61.8373,       433,
   61.8676,       400,
   61.8979,       376,
   61.9283,       330,
   61.9586,       343,
   61.9889,       340,
   62.0192,       325,
   62.0496,       298,
   62.0799,       320,
   62.1102,       325,
   62.1406,       288,
   62.1709,       336,
   62.2012,       344,
   62.2315,       371,
   62.2619,       369,
   62.2922,       373,
   62.3225,       375,
   62.3529,       377,
   62.3832,       381,
   62.4135,       392,
   62.4438,       390,
   62.4742,       356,
   62.5045,       308,
   62.5348,       328,
   62.5652,       330,
   62.5955,       293,
   62.6258,       321,
   62.6561,       274,
   62.6865,       269,
   62.7168,       266,
   62.7471,       265,
   62.7775,       246,
   62.8078,       260,
   62.8381,       282,
   62.8684,       249,
   62.8988,       269,
   62.9291,       270,
   62.9594,       259,
   62.9898,       259,
   63.0201,       257,
   63.0504,       244,
   63.0807,       269,
   63.1111,       262,
   63.1414,       244,
   63.1717,       238,
    63.202,       267,
   63.2324,       247,
   63.2627,       274,
    63.293,       271,
   63.3234,       276,
   63.3537,       294,
    63.384,       230,
   63.4143,       261,
   63.4447,       289,
    63.475,       287,
   63.5053,       267,
   63.5357,       294,
    63.566,       286,
   63.5963,       262,
   63.6266,       289,
    63.657,       242,
   63.6873,       288,
   63.7176,       245,
    63.748,       233,
   63.7783,       270,
   63.8086,       230,
   63.8389,       249,
   63.8693,       263,
   63.8996,       288,
   63.9299,       248,
   63.9603,       246,
   63.9906,       213,
   64.0209,       239,
   64.0512,       245,
   64.0816,       271,
   64.1119,       220,
   64.1422,       225,
   64.1725,       248,
   64.2029,       267,
   64.2332,       244,
   64.2635,       269,
   64.2939,       252,
   64.3242,       235,
   64.3545,       223,
   64.3848,       253,
   64.4152,       233,
   64.4455,       248,
   64.4758,       247,
   64.5062,       256,
   64.5365,       244,
   64.5668,       233,
   64.5971,       210,
   64.6275,       238,
   64.6578,       228,
   64.6881,       250,
   64.7185,       247,
   64.7488,       222,
   64.7791,       264,
   64.8094,       215,
   64.8398,       236,
   64.8701,       240,
   64.9004,       231,
   64.9308,       230,
   64.9611,       231,
   64.9914,       260,
   65.0217,       237,
   65.0521,       247,
   65.0824,       236,
   65.1127,       273,
    65.143,       261,
   65.1734,       250,
   65.2037,       219,
    65.234,       245,
   65.2644,       236,
   65.2947,       244,
    65.325,       256,
   65.3553,       215,
   65.3857,       234,
    65.416,       208,
   65.4463,       230,
   65.4767,       218,
    65.507,       240,
   65.5373,       242,
   65.5676,       220,
    65.598,       236,
   65.6283,       244,
   65.6586,       220,
    65.689,       226,
   65.7193,       218,
   65.7496,       243,
   65.7799,       242,
   65.8103,       255,
   65.8406,       233,
   65.8709,       238,
   65.9013,       224,
   65.9316,       224,
   65.9619,       229,
   65.9922,       247,
   66.0226,       256,
   66.0529,       264,
   66.0832,       253,
   66.1135,       250,
   66.1439,       227,
   66.1742,       222,
   66.2045,       254,
   66.2349,       220,
   66.2652,       249,
   66.2955,       234,
   66.3258,       246,
   66.3562,       238,
   66.3865,       266,
   66.4168,       228,
   66.4472,       249,
   66.4775,       208,
   66.5078,       256,
   66.5381,       223,
   66.5685,       258,
   66.5988,       233,
   66.6291,       229,
   66.6595,       233,
   66.6898,       254,
   66.7201,       236,
   66.7504,       216,
   66.7808,       257,
   66.8111,       237,
   66.8414,       263,
   66.8718,       255,
   66.9021,       208,
   66.9324,       269,
   66.9627,       287,
   66.9931,       270,
   67.0234,       248,
   67.0537,       264,
    67.084,       235,
   67.1144,       263,
   67.1447,       224,
    67.175,       254,
   67.2054,       239,
   67.2357,       235,
    67.266,       262,
   67.2963,       244,
   67.3267,       233,
    67.357,       246,
   67.3873,       242,
   67.4177,       233,
    67.448,       252,
   67.4783,       245,
   67.5086,       246,
    67.539,       283,
   67.5693,       308,
   67.5996,       237,
     67.63,       291,
   67.6603,       294,
   67.6906,       274,
   67.7209,       287,
   67.7513,       271,
   67.7816,       284,
   67.8119,       262,
   67.8423,       311,
   67.8726,       294,
   67.9029,       296,
   67.9332,       279,
   67.9636,       292,
   67.9939,       295,
   68.0242,       289,
   68.0546,       304,
   68.0849,       277,
   68.1152,       253,
   68.1455,       268,
   68.1759,       266,
   68.2062,       249,
   68.2365,       263,
   68.2668,       267,
   68.2972,       274,
   68.3275,       258,
   68.3578,       292,
   68.3882,       288,
   68.4185,       285,
   68.4488,       308,
   68.4791,       318,
   68.5095,       296,
   68.5398,       342,
   68.5701,       328,
   68.6005,       357,
   68.6308,       364,
   68.6611,       380,
   68.6914,       373,
   68.7218,       391,
   68.7521,       344,
   68.7824,       382,
   68.8128,       391,
   68.8431,       405,
   68.8734,       388,
   68.9037,       329,
   68.9341,       303,
   68.9644,       334,
   68.9947,       311,
   69.0251,       333,
   69.0554,       313,
   69.0857,       270,
    69.116,       284,
   69.1464,       302,
   69.1767,       260,
    69.207,       307,
   69.2373,       288,
   69.2677,       284,
    69.298,       269,
   69.3283,       270,
   69.3587,       259,
    69.389,       287,
   69.4193,       255,
   69.4496,       271,
     69.48,       253,
   69.5103,       271,
   69.5406,       232,
    69.571,       238,
   69.6013,       254,
   69.6316,       270,
   69.6619,       267,
   69.6923,       281,
   69.7226,       260,
   69.7529,       241,
   69.7833,       284,
   69.8136,       260,
   69.8439,       240,
   69.8742,       247,
   69.9046,       297,
   69.9349,       262,
   69.9652,       283,
   69.9956,       267,
