;RAW4.00
[RawHeader]
Date=04/20/2019
EstimatedTotalTime=57656.1
FurtherDQLReading=0
HardwareIndicator=65519
MeasuredTotalTime=57656.1
MeasurementFlag=1
NumberOfMeasuredRanges=1
NumberOfRanges=1
Time=19:29:51

[VarInfo]
Type=USER
Flags=0
Value=Bruker Service

[VarInfo]
Type=SAMPLEID
Flags=0
Value=Commander Sample ID

[VarInfo]
Type=COMMENT
Flags=0
Value=

[VarInfo]
Type=UTF
Flags=0
Value=

[VarInfo]
Type=CREATOR
Flags=0
Value=BrmlToV4Converter

[VarInfo]
Type=CREATOR_VERSION
Flags=0
Value=7.3.0.0

[HardwareConfiguration]
AbsorptionFactor=9999
ActivateAbsorber=0
Alpha1=1.78897
Alpha2=1.79285
AlphaAverage=1.79026
AlphaRatio=0.5
Analyzer=0
Anode=Co
AntiScatteringSlit=9999
BeamOpticsFlags=0
Beta=1.62079
BetaRelativeIntensity=0
DeactivateAbsorber=0
DetectorSlit=9999
DivergenceSlit=1
GoniometerControl=0
GoniometerDiameter=282
GoniometerModel=256
GoniometerStage=7
Monochromator=0
NearSampleSlit=9999
PrimarySollerSlit=9999
SampleChanger=0
SecondSollerSlit=9999
SynchronousAxis=0
ThinFilmAttachment=9999
WaveUnit=A

[RangeHeader]
ActuallyUsedLambda=1.79026
AdditionalDetectorMask=257
DataRecordLength=4
DelayTime=0
DisplayPlaneNumber=0
EstimatedScanTime=57656
ExtraParametersMask=0
GeneratorCurrent=10
GeneratorVoltage=30
Increment=0.0303281
Increment3=0
NumberOfCompletedData=2144
NumberOfCounts=1
NumberOfDetectors=0
NumberOfDrives=2
NumberOfEncoderDrives=0
NumberOfMeasuredData=2144
NumberOfVaryingParameters=0
RangeStartTime=0
RotationSpeed=1
ScanMode=1
ScanType=Locked Coupled
SimulatedMeasConditions=0
SlitChangerIn=0
SmootingWidth=0
Start=5.00234
Steps=2144
SynchronousRotation=0
Time=3960

[VarInfo]
Type=PSD_DISCRIM
Flags=0
Value=0.11;0.25

[PSD]
ActualTwoTheta=9999
FirstUsedChannel=0
FixedPSD=0
PSDOpening=5.00414
PSDType=5

[Drive]
DriveFlags=1
DriveName=2Theta
DriveNumber=2
DriveOffset=0
OffsetIndex=0
OscillationAmplitude=0
OscillationSpeed=0
StartPosition=5.00234

[Drive]
DriveFlags=1
DriveName=Theta
DriveNumber=1
DriveOffset=0
OffsetIndex=0
OscillationAmplitude=0
OscillationSpeed=0
StartPosition=2.50117

[Data]
     Angle,       PSD,
   5.00234,    205019,
   5.03267,    200076,
     5.063,    196321,
   5.09333,    192754,
   5.12365,    189354,
   5.15398,    185428,
   5.18431,    182041,
   5.21464,    177964,
   5.24497,    174717,
   5.27529,    172110,
   5.30562,    168510,
   5.33595,    166001,
   5.36628,    162858,
   5.39661,    159140,
   5.42694,    156545,
   5.45726,    152786,
   5.48759,    151739,
   5.51792,    147834,
   5.54825,    145920,
   5.57858,    142792,
    5.6089,    141019,
   5.63923,    138769,
   5.66956,    136697,
   5.69989,    134228,
   5.73022,    132396,
   5.76055,    130097,
   5.79087,    128431,
    5.8212,    126307,
   5.85153,    124448,
   5.88186,    122527,
   5.91219,    120170,
   5.94251,    119002,
   5.97284,    116692,
   6.00317,    116036,
    6.0335,    114235,
   6.06383,    112231,
   6.09415,    110986,
   6.12448,    109561,
   6.15481,    107737,
   6.18514,    106356,
   6.21547,    104771,
    6.2458,    103319,
   6.27612,    101806,
   6.30645,    100678,
   6.33678,   99569.3,
   6.36711,   97842.2,
   6.39744,   96474.2,
   6.42776,   95174.4,
   6.45809,   93846.7,
   6.48842,   93320.6,
   6.51875,     92401,
   6.54908,     90071,
    6.5794,   89475.8,
   6.60973,   87814.1,
   6.64006,   87396.5,
   6.67039,   86077.4,
   6.70072,   85340.2,
   6.73105,   84447.4,
   6.76137,   83140.8,
    6.7917,   81727.7,
   6.82203,   80645.8,
   6.85236,   80070.7,
   6.88269,   79243.2,
   6.91301,   78354.2,
   6.94334,   77492.2,
   6.97367,   76550.4,
     7.004,   75332.2,
   7.03433,   73979.5,
   7.06466,   74652.5,
   7.09498,   72664.3,
   7.12531,   72012.5,
   7.15564,   70880.6,
   7.18597,   69523.2,
    7.2163,   69755.5,
   7.24662,   68369.3,
   7.27695,   67477.4,
   7.30728,   67160.6,
   7.33761,   66422.4,
   7.36794,     64992,
   7.39826,   65241.6,
   7.42859,   64099.2,
   7.45892,   63107.5,
   7.48925,   62293.4,
   7.51958,   62052.5,
   7.54991,   61198.1,
   7.58023,   60949.4,
   7.61056,   59649.6,
   7.64089,   59511.4,
   7.67122,   58806.7,
   7.70155,   57707.5,
   7.73187,   56509.4,
    7.7622,   56560.3,
   7.79253,   56118.7,
   7.82286,   55502.4,
   7.85319,   55263.4,
   7.88352,   53828.2,
   7.91384,     53280,
   7.94417,     52583,
    7.9745,   52286.4,
   8.00483,   51944.6,
   8.03516,   51188.2,
   8.06548,     50735,
   8.09581,   50118.7,
   8.12614,   49358.4,
   8.15647,   48954.2,
    8.1868,   48297.6,
   8.21712,   47766.7,
   8.24745,     47281,
   8.27778,   46771.2,
   8.30811,   47449.9,
   8.33844,   45852.5,
   8.36877,   45543.4,
   8.39909,   45496.3,
   8.42942,   44823.4,
   8.45975,     43968,
   8.49008,   43691.5,
   8.52041,   42803.5,
   8.55073,   42898.6,
   8.58106,     43127,
   8.61139,   42273.6,
   8.64172,   41863.7,
   8.67205,   41691.8,
   8.70237,   40599.4,
    8.7327,   40793.3,
   8.76303,   40553.3,
   8.79336,   39452.2,
   8.82369,   39572.2,
   8.85402,   39386.9,
   8.88434,   38343.4,
   8.91467,   38935.7,
     8.945,   38205.1,
   8.97533,   37795.2,
   9.00566,   37167.4,
   9.03598,   36856.3,
   9.06631,   36798.7,
   9.09664,   36441.6,
   9.12697,   36354.2,
    9.1573,   35727.4,
   9.18763,   35627.5,
   9.21795,   35487.4,
   9.24828,   35727.4,
   9.27861,   35176.3,
   9.30894,   34805.8,
   9.33927,   34702.1,
   9.36959,   34310.4,
   9.39992,   34547.5,
   9.43025,   33678.7,
   9.46058,   33873.6,
   9.49091,   33314.9,
   9.52123,   33282.2,
   9.55156,   33182.4,
   9.58189,   32522.9,
   9.61222,   33013.4,
   9.64255,   32649.6,
   9.67288,   32528.6,
    9.7032,   32046.7,
   9.73353,   32021.8,
   9.76386,   31643.5,
   9.79419,   31833.6,
   9.82452,   31539.8,
   9.85484,   31591.7,
   9.88517,   31425.6,
    9.9155,   31034.9,
   9.94583,   30890.9,
   9.97616,   30947.5,
   10.0065,   30855.4,
   10.0368,   30354.2,
   10.0671,     30409,
   10.0975,   30307.2,
   10.1278,   30274.6,
   10.1581,   30268.8,
   10.1885,   29913.6,
   10.2188,   29475.8,
   10.2491,   29771.5,
   10.2794,   29373.1,
   10.3098,   29170.6,
   10.3401,     29088,
   10.3704,   29101.4,
   10.4008,   29003.5,
   10.4311,     29209,
   10.4614,   28692.5,
   10.4917,   28371.8,
   10.5221,   28513.9,
   10.5524,   28012.8,
   10.5827,   28171.2,
    10.613,   28292.2,
   10.6434,   28317.1,
   10.6737,   28258.6,
    10.704,   27664.3,
   10.7344,   27872.6,
   10.7647,     27792,
    10.795,   27700.8,
   10.8253,   27385.9,
   10.8557,   27043.2,
    10.886,   27437.8,
   10.9163,   27178.6,
   10.9467,     27120,
    10.977,   26902.1,
   11.0073,   27251.5,
   11.0376,     27263,
    11.068,   26746.6,
   11.0983,   26628.5,
   11.1286,   26518.1,
    11.159,   26654.4,
   11.1893,   26278.1,
   11.2196,   26055.4,
   11.2499,   26332.8,
   11.2803,   26147.5,
   11.3106,   26309.8,
   11.3409,   25810.6,
   11.3713,   25813.4,
   11.4016,     25992,
   11.4319,   25811.5,
   11.4622,   25676.2,
   11.4926,   25808.6,
   11.5229,   25495.7,
   11.5532,     25559,
   11.5835,   25201.9,
   11.6139,   25470.7,
   11.6442,   25467.8,
   11.6745,   25094.4,
   11.7049,     25415,
   11.7352,   25882.6,
   11.7655,   25469.8,
   11.7958,   25830.7,
   11.8262,   25222.1,
   11.8565,   24933.1,
   11.8868,   24753.6,
   11.9172,   24776.6,
   11.9475,   24602.9,
   11.9778,   24454.1,
   12.0081,     24697,
   12.0385,   24286.1,
   12.0688,   24549.1,
   12.0991,   24213.1,
   12.1295,     24385,
   12.1598,   24347.5,
   12.1901,   24596.2,
   12.2204,   24127.7,
   12.2508,   24413.8,
   12.2811,   23868.5,
   12.3114,   23669.8,
   12.3418,     23689,
   12.3721,   23868.5,
   12.4024,   23391.4,
   12.4327,   23895.4,
   12.4631,   23822.4,
   12.4934,   23412.5,
   12.5237,   23347.2,
    12.554,   23162.9,
   12.5844,   23119.7,
   12.6147,   23356.8,
    12.645,   23125.4,
   12.6754,   23265.6,
   12.7057,   23109.1,
    12.736,     23232,
   12.7663,   22947.8,
   12.7967,   22916.2,
    12.827,   22863.4,
   12.8573,   23005.4,
   12.8877,   23226.2,
    12.918,   22552.3,
   12.9483,   22592.6,
   12.9786,   22353.6,
    13.009,   22592.6,
   13.0393,   22556.2,
   13.0696,   22561.9,
      13.1,   22713.6,
   13.1303,   22541.8,
   13.1606,   22721.3,
   13.1909,   22485.1,
   13.2213,   22876.8,
   13.2516,   22525.4,
   13.2819,   22532.2,
   13.3123,   22493.8,
   13.3426,   22762.6,
   13.3729,   23154.2,
   13.4032,   23455.7,
   13.4336,   24199.7,
   13.4639,   25251.8,
   13.4942,   27097.9,
   13.5245,   28588.8,
   13.5549,   27340.8,
   13.5852,   24250.6,
   13.6155,     23257,
   13.6459,   22503.4,
   13.6762,   22086.7,
   13.7065,   21534.7,
   13.7368,     21816,
   13.7672,   21608.6,
   13.7975,     21527,
   13.8278,   21515.5,
   13.8582,   21478.1,
   13.8885,     21504,
   13.9188,   21278.4,
   13.9491,   21402.2,
   13.9795,   21212.2,
   14.0098,     21288,
   14.0401,   21185.3,
   14.0705,   20978.9,
   14.1008,   21102.7,
   14.1311,   21067.2,
   14.1614,   21256.3,
   14.1918,   21004.8,
   14.2221,   20898.2,
   14.2524,   21082.6,
   14.2828,   20920.3,
   14.3131,   20635.2,
   14.3434,   21181.4,
   14.3737,     21001,
   14.4041,     20879,
   14.4344,   20744.6,
   14.4647,   20729.3,
   14.4951,   20457.6,
   14.5254,   20437.4,
   14.5557,   20415.4,
    14.586,     20376,
   14.6164,   20193.6,
   14.6467,   20388.5,
    14.677,   20116.8,
   14.7073,   19983.4,
   14.7377,   19542.7,
    14.768,     19799,
   14.7983,   19747.2,
   14.8287,   19668.5,
    14.859,   19595.5,
   14.8893,   19635.8,
   14.9196,   19839.4,
     14.95,   19577.3,
   14.9803,   19387.2,
   15.0106,   19772.2,
    15.041,     19560,
   15.0713,   19678.1,
   15.1016,   19723.2,
   15.1319,   19041.6,
   15.1623,   19545.6,
   15.1926,   19205.8,
   15.2229,     19247,
   15.2533,   19185.6,
   15.2836,   19144.3,
   15.3139,   19242.2,
   15.3442,   19313.3,
   15.3746,   19013.8,
   15.4049,   19474.6,
   15.4352,     19007,
   15.4656,   18928.3,
   15.4959,   18875.5,
   15.5262,   18712.3,
   15.5565,   18701.8,
   15.5869,   18594.2,
   15.6172,   18769.9,
   15.6475,   18724.8,
   15.6778,   18759.4,
   15.7082,   18659.5,
   15.7385,   18680.6,
   15.7688,   18674.9,
   15.7992,   18482.9,
   15.8295,   18718.1,
   15.8598,   18457.9,
   15.8901,   18491.5,
   15.9205,   18394.6,
   15.9508,   18395.5,
   15.9811,   18265.9,
   16.0115,   18370.6,
   16.0418,     18360,
   16.0721,   18139.2,
   16.1024,   18164.2,
   16.1328,     18335,
   16.1631,   18140.2,
   16.1934,   18368.6,
   16.2238,   18361.9,
   16.2541,   18203.5,
   16.2844,   18374.4,
   16.3147,   18258.2,
   16.3451,   18089.3,
   16.3754,   18003.8,
   16.4057,   18222.7,
   16.4361,   18127.7,
   16.4664,   18236.2,
   16.4967,   17835.8,
    16.527,   18201.6,
   16.5574,   18477.1,
   16.5877,   19277.8,
    16.618,   20421.1,
   16.6483,   22097.3,
   16.6787,   24585.6,
    16.709,   24439.7,
   16.7393,   21752.6,
   16.7697,     19199,
      16.8,   18171.8,
   16.8303,     17879,
   16.8606,   17730.2,
    16.891,   17587.2,
   16.9213,     17328,
   16.9516,   17402.9,
    16.982,   17477.8,
   17.0123,   17362.6,
   17.0426,   17390.4,
   17.0729,   17396.2,
   17.1033,   17190.7,
   17.1336,   17374.1,
   17.1639,   17127.4,
   17.1943,   16980.5,
   17.2246,   17227.2,
   17.2549,   17092.8,
   17.2852,   16996.8,
   17.3156,   17070.7,
   17.3459,     17015,
   17.3762,   16678.1,
   17.4066,   16950.7,
   17.4369,   16963.2,
   17.4672,   16760.6,
   17.4975,   16908.5,
   17.5279,     16823,
   17.5582,   16804.8,
   17.5885,   16756.8,
   17.6188,   16861.4,
   17.6492,   16447.7,
   17.6795,   16378.6,
   17.7098,   16959.4,
   17.7402,     16441,
   17.7705,     16535,
   17.8008,   16244.2,
   17.8311,   16640.6,
   17.8615,     16272,
   17.8918,   16592.6,
   17.9221,     16536,
   17.9525,   16256.6,
   17.9828,   16363.2,
   18.0131,     16679,
   18.0434,   16671.4,
   18.0738,   16353.6,
   18.1041,   16230.7,
   18.1344,   16457.3,
   18.1648,     16104,
   18.1951,     16295,
   18.2254,     16175,
   18.2557,   16303.7,
   18.2861,   16220.2,
   18.3164,   16054.1,
   18.3467,   16060.8,
   18.3771,   16218.2,
   18.4074,   16345.9,
   18.4377,   15937.9,
    18.468,     16105,
   18.4984,   15938.9,
   18.5287,   16211.5,
    18.559,   15821.8,
   18.5893,   15895.7,
   18.6197,   15910.1,
     18.65,   15687.4,
   18.6803,   15829.4,
   18.7107,   15715.2,
    18.741,   15573.1,
   18.7713,   15748.8,
   18.8016,   15854.4,
    18.832,   15663.4,
   18.8623,     15696,
   18.8926,   15664.3,
    18.923,   15857.3,
   18.9533,   15923.5,
   18.9836,   15673.9,
   19.0139,   15752.6,
   19.0443,   15563.5,
   19.0746,   15520.3,
   19.1049,   15445.4,
   19.1353,     15527,
   19.1656,     15553,
   19.1959,   15716.2,
   19.2262,   15424.3,
   19.2566,   15496.3,
   19.2869,   15449.3,
   19.3172,   15649.9,
   19.3476,   15437.8,
   19.3779,   15545.3,
   19.4082,     15360,
   19.4385,   15523.2,
   19.4689,     15527,
   19.4992,   15508.8,
   19.5295,   15296.6,
   19.5599,   15522.2,
   19.5902,   15570.2,
   19.6205,   15340.8,
   19.6508,   15300.5,
   19.6812,   15193.9,
   19.7115,   15314.9,
   19.7418,   15226.6,
   19.7721,   15498.2,
   19.8025,   15228.5,
   19.8328,   15232.3,
   19.8631,   15196.8,
   19.8935,   15208.3,
   19.9238,   15246.7,
   19.9541,   15207.4,
   19.9844,   15029.8,
   20.0148,   15201.6,
   20.0451,   15366.7,
   20.0754,     15263,
   20.1058,   15005.8,
   20.1361,   15278.4,
   20.1664,   14850.2,
   20.1967,   14945.3,
   20.2271,   15145.9,
   20.2574,   15100.8,
   20.2877,   14993.3,
   20.3181,   15122.9,
   20.3484,   15142.1,
   20.3787,   14882.9,
    20.409,   15056.6,
   20.4394,   14857.9,
   20.4697,     15192,
      20.5,   15030.7,
   20.5304,     14785,
   20.5607,   14828.2,
    20.591,   14923.2,
   20.6213,   15042.2,
   20.6517,   14866.6,
    20.682,   14779.2,
   20.7123,   14894.4,
   20.7426,     14879,
    20.773,   14918.4,
   20.8033,   15234.2,
   20.8336,   14684.2,
    20.864,     14833,
   20.8943,   15220.8,
   20.9246,   14858.9,
   20.9549,   14776.3,
   20.9853,   14810.9,
   21.0156,   14729.3,
   21.0459,   14789.8,
   21.0763,   14715.8,
   21.1066,   14683.2,
   21.1369,   14510.4,
   21.1672,   14748.5,
   21.1976,   14675.5,
   21.2279,   14416.3,
   21.2582,   14475.8,
   21.2886,   14646.7,
   21.3189,     14663,
   21.3492,   14902.1,
   21.3795,   14405.8,
   21.4099,   14479.7,
   21.4402,   14374.1,
   21.4705,   14511.4,
   21.5009,   14595.8,
   21.5312,     14327,
   21.5615,   14641.9,
   21.5918,   14466.2,
   21.6222,   14405.8,
   21.6525,   14645.8,
   21.6828,   14569.9,
   21.7131,   14622.7,
   21.7435,     14449,
   21.7738,   14287.7,
   21.8041,     14520,
   21.8345,   14300.2,
   21.8648,   14297.3,
   21.8951,   14502.7,
   21.9254,     14449,
   21.9558,   14269.4,
   21.9861,     14399,
   22.0164,   14475.8,
   22.0468,   14133.1,
   22.0771,   14490.2,
   22.1074,   14581.4,
   22.1377,     14592,
   22.1681,   14334.7,
   22.1984,   14297.3,
   22.2287,   14464.3,
   22.2591,   14342.4,
   22.2894,   14203.2,
   22.3197,   14292.5,
     22.35,   14404.8,
   22.3804,   14487.4,
   22.4107,   14439.4,
    22.441,   14385.6,
   22.4714,     14592,
   22.5017,   14507.5,
    22.532,   14558.4,
   22.5623,   14598.7,
   22.5927,   14430.7,
    22.623,   14589.1,
   22.6533,   14653.4,
   22.6836,   15221.8,
    22.714,   14893.4,
   22.7443,   14959.7,
   22.7746,   15135.4,
    22.805,   15346.6,
   22.8353,   15706.6,
   22.8656,   15622.1,
   22.8959,   15822.7,
   22.9263,   15972.5,
   22.9566,   16379.5,
   22.9869,   16259.5,
   23.0173,   16325.8,
   23.0476,   16459.2,
   23.0779,   16602.2,
   23.1082,   16459.2,
   23.1386,   16437.1,
   23.1689,   16360.3,
   23.1992,   16441.9,
   23.2296,     16248,
   23.2599,     15816,
   23.2902,   16095.4,
   23.3205,   16038.7,
   23.3509,   16397.8,
   23.3812,   17223.4,
   23.4115,     17327,
   23.4419,   16576.3,
   23.4722,   16035.8,
   23.5025,   15500.2,
   23.5328,   15350.4,
   23.5632,   14935.7,
   23.5935,   15081.6,
   23.6238,   15171.8,
   23.6541,   14867.5,
   23.6845,     14831,
   23.7148,   14742.7,
   23.7451,   14676.5,
   23.7755,     14472,
   23.8058,   14602.6,
   23.8361,   14632.3,
   23.8664,   14478.7,
   23.8968,   14573.8,
   23.9271,   14826.2,
   23.9574,   14586.2,
   23.9878,   14860.8,
   24.0181,   15346.6,
   24.0484,   15685.4,
   24.0787,   16890.2,
   24.1091,   18339.8,
   24.1394,     18959,
   24.1697,   18242.9,
   24.2001,   17353.9,
   24.2304,   16209.6,
   24.2607,   15876.5,
    24.291,   16048.3,
   24.3214,     15817,
   24.3517,   15397.4,
    24.382,   14702.4,
   24.4124,   14340.5,
   24.4427,   14324.2,
    24.473,   14547.8,
   24.5033,   15106.6,
   24.5337,   15045.1,
    24.564,   14922.2,
   24.5943,   14550.7,
   24.6246,   14117.8,
    24.655,   14172.5,
   24.6853,   13926.7,
   24.7156,   13782.7,
    24.746,   13789.4,
   24.7763,   13744.3,
   24.8066,   13685.8,
   24.8369,   13400.6,
   24.8673,   13333.4,
   24.8976,   13282.6,
   24.9279,   13381.4,
   24.9583,   13179.8,
   24.9886,   13379.5,
   25.0189,   13096.3,
   25.0492,   13459.2,
   25.0796,   13274.9,
   25.1099,     13152,
   25.1402,   13212.5,
   25.1706,   13069.4,
   25.2009,   13198.1,
   25.2312,   12978.2,
   25.2615,   13087.7,
   25.2919,   13059.8,
   25.3222,   13174.1,
   25.3525,   12739.2,
   25.3829,   13000.3,
   25.4132,     12865,
   25.4435,   12962.9,
   25.4738,   12890.9,
   25.5042,   13177.9,
   25.5345,   13042.6,
   25.5648,   13108.8,
   25.5952,   13137.6,
   25.6255,   12999.4,
   25.6558,   13111.7,
   25.6861,   13029.1,
   25.7165,   13009.9,
   25.7468,   13093.4,
   25.7771,   12992.6,
   25.8074,     12817,
   25.8378,   12894.7,
   25.8681,   12818.9,
   25.8984,   12814.1,
   25.9288,   12728.6,
   25.9591,   12928.3,
   25.9894,   12733.4,
   26.0197,   12469.4,
   26.0501,   12785.3,
   26.0804,   12486.7,
   26.1107,   12617.3,
   26.1411,     12792,
   26.1714,   12726.7,
   26.2017,     12576,
    26.232,     12695,
   26.2624,   12825.6,
   26.2927,   12399.4,
    26.323,   12590.4,
   26.3534,   12334.1,
   26.3837,   12882.2,
    26.414,   12612.5,
   26.4443,   12730.6,
   26.4747,   13017.6,
    26.505,   13117.4,
   26.5353,     13128,
   26.5657,   13183.7,
    26.596,   13147.2,
   26.6263,   12993.6,
   26.6566,   12917.8,
    26.687,   13039.7,
   26.7173,   13359.4,
   26.7476,   13520.6,
   26.7779,   13843.2,
   26.8083,   14311.7,
   26.8386,     15095,
   26.8689,   15973.4,
   26.8993,   16635.8,
   26.9296,   16844.2,
   26.9599,   16881.6,
   26.9902,   17684.2,
   27.0206,   18617.3,
   27.0509,   21027.8,
   27.0812,     24288,
   27.1116,   28141.4,
   27.1419,   32024.6,
   27.1722,   34755.8,
   27.2025,   35163.8,
   27.2329,   33523.2,
   27.2632,   30715.2,
   27.2935,   27585.6,
   27.3239,     24697,
   27.3542,   22159.7,
   27.3845,     19968,
   27.4148,   18347.5,
   27.4452,     17423,
   27.4755,   16350.7,
   27.5058,   15758.4,
   27.5362,   15517.4,
   27.5665,   15295.7,
   27.5968,   14874.2,
   27.6271,     14544,
   27.6575,   14102.4,
   27.6878,     13873,
   27.7181,   13516.8,
   27.7484,   13357.4,
   27.7788,     12985,
   27.8091,   12951.4,
   27.8394,   12795.8,
   27.8698,   12644.2,
   27.9001,   12668.2,
   27.9304,   12854.4,
   27.9607,   12860.2,
   27.9911,   12871.7,
   28.0214,   12723.8,
   28.0517,   12579.8,
   28.0821,   12441.6,
   28.1124,   12568.3,
   28.1427,   12788.2,
    28.173,     12961,
   28.2034,     12719,
   28.2337,   12618.2,
    28.264,   12334.1,
   28.2944,   11960.6,
   28.3247,   12069.1,
    28.355,   12137.3,
   28.3853,   11909.8,
   28.4157,   12059.5,
    28.446,     11711,
   28.4763,   11789.8,
   28.5067,   11738.9,
    28.537,   11962.6,
   28.5673,   12034.6,
   28.5976,   12156.5,
    28.628,   12248.6,
   28.6583,   12253.4,
   28.6886,   11872.3,
   28.7189,   11934.7,
   28.7493,   11724.5,
   28.7796,   11719.7,
   28.8099,   11788.8,
   28.8403,   11776.3,
   28.8706,   12099.8,
   28.9009,   11829.1,
   28.9312,   11719.7,
   28.9616,   12241.9,
   28.9919,   11786.9,
   29.0222,   11918.4,
   29.0526,   11672.6,
   29.0829,   11895.4,
   29.1132,   11843.5,
   29.1435,   11363.5,
   29.1739,   11820.5,
   29.2042,   11774.4,
   29.2345,   11740.8,
   29.2649,   11779.2,
   29.2952,   11542.1,
   29.3255,   11584.3,
   29.3558,   11558.4,
   29.3862,   11755.2,
   29.4165,   11691.8,
   29.4468,     11952,
   29.4772,   11995.2,
   29.5075,   11779.2,
   29.5378,   11763.8,
   29.5681,   11800.3,
   29.5985,   11818.6,
   29.6288,   11483.5,
   29.6591,   11651.5,
   29.6894,   11569.9,
   29.7198,   11450.9,
   29.7501,     11448,
   29.7804,   11612.2,
   29.8108,   11296.3,
   29.8411,   11465.3,
   29.8714,   11849.3,
   29.9017,   11570.9,
   29.9321,     11497,
   29.9624,   11924.2,
   29.9927,   12010.6,
   30.0231,   11919.4,
   30.0534,   11881.9,
   30.0837,   11962.6,
    30.114,     12169,
   30.1444,     12409,
   30.1747,   12426.2,
    30.205,   12717.1,
   30.2354,   12828.5,
   30.2657,   13037.8,
    30.296,   13566.7,
   30.3263,   13829.8,
   30.3567,   15102.7,
    30.387,   16713.6,
   30.4173,   18783.4,
   30.4477,   23566.1,
    30.478,   32741.8,
   30.5083,   44316.5,
   30.5386,   48729.6,
    30.569,   43389.1,
   30.5993,   36330.2,
   30.6296,   27458.9,
     30.66,   20996.2,
   30.6903,   17081.3,
   30.7206,   15730.6,
   30.7509,   14580.5,
   30.7813,   14030.4,
   30.8116,   13878.7,
   30.8419,   13420.8,
   30.8722,   13102.1,
   30.9026,   12890.9,
   30.9329,   12798.7,
   30.9632,   13241.3,
   30.9936,   14244.5,
   31.0239,   16141.4,
   31.0542,   18393.6,
   31.0845,   17226.2,
   31.1149,   16118.4,
   31.1452,   14998.1,
   31.1755,   13763.5,
   31.2059,   13754.9,
   31.2362,   14036.2,
   31.2665,   14408.6,
   31.2968,   14905.9,
   31.3272,   15321.6,
   31.3575,   15632.6,
   31.3878,   15738.2,
   31.4182,   15650.9,
   31.4485,   15403.2,
   31.4788,     15529,
   31.5091,     15719,
   31.5395,     16224,
   31.5698,   16888.3,
   31.6001,   18322.6,
   31.6305,   21453.1,
   31.6608,   25447.7,
   31.6911,   28908.5,
   31.7214,   28781.8,
   31.7518,     25679,
   31.7821,   22422.7,
   31.8124,   18698.9,
   31.8427,   15996.5,
   31.8731,     14688,
   31.9034,   13573.4,
   31.9337,   12981.1,
   31.9641,   12981.1,
   31.9944,   12626.9,
   32.0247,   12146.9,
    32.055,   12276.5,
   32.0854,     12072,
   32.1157,   11912.6,
    32.146,   11612.2,
   32.1764,   11651.5,
   32.2067,   11462.4,
    32.237,   11385.6,
   32.2673,   11461.4,
   32.2977,   11590.1,
    32.328,   11435.5,
   32.3583,   11486.4,
   32.3887,   11406.7,
    32.419,   11275.2,
   32.4493,     11232,
   32.4796,   11177.3,
     32.51,   11457.6,
   32.5403,   11239.7,
   32.5706,   11522.9,
    32.601,   11444.2,
   32.6313,     11496,
   32.6616,   11446.1,
   32.6919,   11310.7,
   32.7223,   11190.7,
   32.7526,   11000.6,
   32.7829,   11130.2,
   32.8132,   11212.8,
   32.8436,   11223.4,
   32.8739,   11240.6,
   32.9042,   11283.8,
   32.9346,     11137,
   32.9649,   11302.1,
   32.9952,   11212.8,
   33.0255,   11011.2,
   33.0559,   11158.1,
   33.0862,   10972.8,
   33.1165,     10993,
   33.1469,   11119.7,
   33.1772,   11122.6,
   33.2075,   11220.5,
   33.2378,   11251.2,
   33.2682,   11210.9,
   33.2985,   11298.2,
   33.3288,   11143.7,
   33.3592,     11065,
   33.3895,   11229.1,
   33.4198,   11311.7,
   33.4501,   11357.8,
   33.4805,   11286.7,
   33.5108,   11455.7,
   33.5411,   11579.5,
   33.5715,   11672.6,
   33.6018,   11913.6,
   33.6321,   11996.2,
   33.6624,   12207.4,
   33.6928,   12620.2,
   33.7231,   12820.8,
   33.7534,   12997.4,
   33.7837,   12841.9,
   33.8141,   13351.7,
   33.8444,   13515.8,
   33.8747,   14549.8,
   33.9051,   15446.4,
   33.9354,   15886.1,
   33.9657,   16237.4,
    33.996,     16416,
   34.0264,   16157.8,
   34.0567,   15921.6,
    34.087,   16326.7,
   34.1174,   16753.9,
   34.1477,     17616,
    34.178,   18631.7,
   34.2083,   20176.3,
   34.2387,   23296.3,
    34.269,   29033.3,
   34.2993,   35998.1,
   34.3297,   39994.6,
     34.36,   41431.7,
   34.3903,   42079.7,
   34.4206,   43217.3,
    34.451,   45529.9,
   34.4813,   50485.4,
   34.5116,   60841.9,
    34.542,   75106.6,
   34.5723,     93864,
   34.6026,    116613,
   34.6329,    142121,
   34.6633,    167573,
   34.6936,    187660,
   34.7239,    197409,
   34.7542,    197358,
   34.7846,    189778,
   34.8149,    176169,
   34.8452,    158115,
   34.8756,    139551,
   34.9059,    122199,
   34.9362,    106054,
   34.9665,   91147.2,
   34.9969,   79040.6,
   35.0272,   69271.7,
   35.0575,   60994.6,
   35.0879,   54210.2,
   35.1182,     48577,
   35.1485,   43693.4,
   35.1788,   40001.3,
   35.2092,   36680.6,
   35.2395,   33946.6,
   35.2698,   31645.4,
   35.3002,   29239.7,
   35.3305,     27985,
   35.3608,   26371.2,
   35.3911,   25444.8,
   35.4215,   24037.4,
   35.4518,   23276.2,
   35.4821,   22022.4,
   35.5125,     21384,
   35.5428,   20416.3,
   35.5731,   19985.3,
   35.6034,   19353.6,
   35.6338,   18838.1,
   35.6641,   18538.6,
   35.6944,   17626.6,
   35.7248,   17489.3,
   35.7551,   17154.2,
   35.7854,   16700.2,
   35.8157,   16675.2,
   35.8461,   16597.4,
   35.8764,   16779.8,
   35.9067,   16747.2,
    35.937,   16526.4,
   35.9674,   16618.6,
   35.9977,   16040.6,
    36.028,   16197.1,
   36.0584,     16057,
   36.0887,   15710.4,
    36.119,   15207.4,
   36.1493,   14916.5,
   36.1797,   14729.3,
     36.21,   14917.4,
   36.2403,   15899.5,
   36.2707,   15934.1,
    36.301,   15226.6,
   36.3313,   14821.4,
   36.3616,   14150.4,
    36.392,   13067.5,
   36.4223,   12560.6,
   36.4526,   12147.8,
    36.483,   11877.1,
   36.5133,   11681.3,
   36.5436,   11418.2,
   36.5739,   11434.6,
   36.6043,   11294.4,
   36.6346,   11182.1,
   36.6649,   11454.7,
   36.6953,   11397.1,
   36.7256,   11330.9,
   36.7559,   11210.9,
   36.7862,   11290.6,
   36.8166,   11219.5,
   36.8469,   11251.2,
   36.8772,     11256,
   36.9075,   11415.4,
   36.9379,   11618.9,
   36.9682,   11905.9,
   36.9985,   12187.2,
   37.0289,   12556.8,
   37.0592,   12939.8,
   37.0895,   13519.7,
   37.1198,   14157.1,
   37.1502,   13956.5,
   37.1805,   14211.8,
   37.2108,   13982.4,
   37.2412,   13795.2,
   37.2715,   13638.7,
   37.3018,   13275.8,
   37.3321,   13089.6,
   37.3625,   12900.5,
   37.3928,     12551,
   37.4231,   12315.8,
   37.4535,   12145.9,
   37.4838,   12006.7,
   37.5141,   11840.6,
   37.5444,   11894.4,
   37.5748,   12178.6,
   37.6051,   13236.5,
   37.6354,   14499.8,
   37.6658,     14545,
   37.6961,   13589.8,
   37.7264,   13147.2,
   37.7567,     12361,
   37.7871,   11346.2,
   37.8174,   10867.2,
   37.8477,   10761.6,
    37.878,   10522.6,
   37.9084,   10437.1,
   37.9387,   10483.2,
    37.969,     10319,
   37.9994,     10512,
   38.0297,   10672.3,
     38.06,   10497.6,
   38.0903,   10902.7,
   38.1207,   11096.6,
    38.151,   11833.9,
   38.1813,   12328.3,
   38.2117,   12438.7,
    38.242,   12058.6,
   38.2723,   11970.2,
   38.3026,     11809,
    38.333,   11422.1,
   38.3633,   11405.8,
   38.3936,   11446.1,
    38.424,   11426.9,
   38.4543,   11748.5,
   38.4846,   12050.9,
   38.5149,   13181.8,
   38.5453,     15097,
   38.5756,   18464.6,
   38.6059,   22855.7,
   38.6363,   24517.4,
   38.6666,   22282.6,
   38.6969,   20517.1,
   38.7272,   18123.8,
   38.7576,   15174.7,
   38.7879,   13052.2,
   38.8182,   11727.4,
   38.8485,     11305,
   38.8789,   11046.7,
   38.9092,   10939.2,
   38.9395,   11104.3,
   38.9699,   11033.3,
   39.0002,   10820.2,
   39.0305,     10536,
   39.0608,   10337.3,
   39.0912,   10100.2,
   39.1215,      9960,
   39.1518,   9895.68,
   39.1822,   9623.04,
   39.2125,   9503.04,
   39.2428,   9577.92,
   39.2731,   9510.72,
   39.3035,   9386.88,
   39.3338,   9411.84,
   39.3641,   9309.12,
   39.3945,   9162.24,
   39.4248,   9080.64,
   39.4551,    9182.4,
   39.4854,   9173.76,
   39.5158,   9176.64,
   39.5461,   9097.92,
   39.5764,   8964.48,
   39.6068,   9183.36,
   39.6371,   9114.24,
   39.6674,   9143.04,
   39.6977,      9192,
   39.7281,   9161.28,
   39.7584,   9046.08,
   39.7887,   9104.64,
    39.819,    9254.4,
   39.8494,   9410.88,
   39.8797,    9350.4,
     39.91,    9283.2,
   39.9404,   9336.96,
   39.9707,   9399.36,
    40.001,   9239.04,
   40.0313,   9280.32,
   40.0617,   9394.56,
    40.092,   9442.56,
   40.1223,   9376.32,
   40.1527,    9499.2,
    40.183,   9651.84,
   40.2133,   9552.96,
   40.2436,   9636.48,
    40.274,   9653.76,
   40.3043,   9635.52,
   40.3346,    9854.4,
    40.365,   9709.44,
   40.3953,   9912.96,
   40.4256,   10020.5,
   40.4559,   9948.48,
   40.4863,     10056,
   40.5166,   10011.8,
   40.5469,   9978.24,
   40.5773,   10100.2,
   40.6076,   10003.2,
   40.6379,   9959.04,
   40.6682,   9875.52,
   40.6986,   10245.1,
   40.7289,   10027.2,
   40.7592,   10081.9,
   40.7895,   10034.9,
   40.8199,   9887.04,
   40.8502,     10009,
   40.8805,   9900.48,
   40.9109,   9738.24,
   40.9412,    9868.8,
   40.9715,   9819.84,
   41.0018,   9851.52,
   41.0322,   9716.16,
   41.0625,   9867.84,
   41.0928,   9563.52,
   41.1232,   9578.88,
   41.1535,    9686.4,
   41.1838,   9741.12,
   41.2141,   9816.96,
   41.2445,   9570.24,
   41.2748,   9555.84,
   41.3051,   9594.24,
   41.3355,   9472.32,
   41.3658,    9566.4,
   41.3961,   9452.16,
   41.4264,    9604.8,
   41.4568,   9680.64,
   41.4871,   9755.52,
   41.5174,   9431.04,
   41.5478,   9760.32,
   41.5781,   9894.72,
   41.6084,    9955.2,
   41.6387,   9693.12,
   41.6691,      9984,
   41.6994,   10021.4,
   41.7297,      9912,
   41.7601,   10168.3,
   41.7904,   10161.6,
   41.8207,     10416,
    41.851,   10580.2,
   41.8814,   10875.8,
   41.9117,     11065,
    41.942,   11499.8,
   41.9723,   12183.4,
   42.0027,   12971.5,
    42.033,   14182.1,
   42.0633,   16015.7,
   42.0937,   17942.4,
    42.124,     19703,
   42.1543,   20578.6,
   42.1846,     20280,
    42.215,   20395.2,
   42.2453,     20639,
   42.2756,   19592.6,
    42.306,     18767,
   42.3363,     19033,
   42.3666,   20008.3,
   42.3969,     20833,
   42.4273,   22760.6,
   42.4576,   24963.8,
   42.4879,   27046.1,
   42.5183,   29045.8,
   42.5486,   29864.6,
   42.5789,   29771.5,
   42.6092,     29280,
   42.6396,   27834.2,
   42.6699,   26250.2,
   42.7002,   24176.6,
   42.7306,   22523.5,
   42.7609,   20302.1,
   42.7912,   18868.8,
   42.8215,   17189.8,
   42.8519,   16186.6,
   42.8822,   15196.8,
   42.9125,   14228.2,
   42.9428,   13481.3,
   42.9732,   12988.8,
   43.0035,   12425.3,
   43.0338,   12154.6,
   43.0642,   11776.3,
   43.0945,   11523.8,
   43.1248,   11222.4,
   43.1551,   11222.4,
   43.1855,   10821.1,
   43.2158,   10753.9,
   43.2461,   10808.6,
   43.2765,   10675.2,
   43.3068,   10788.5,
   43.3371,   10957.4,
   43.3674,   11114.9,
   43.3978,   11277.1,
   43.4281,   11344.3,
   43.4584,   11881.9,
   43.4888,   12394.6,
   43.5191,   12823.7,
   43.5494,   12564.5,
   43.5797,   12364.8,
   43.6101,   11906.9,
   43.6404,     11856,
   43.6707,   11253.1,
   43.7011,   10921.9,
   43.7314,   10684.8,
   43.7617,   10312.3,
    43.792,     10103,
   43.8224,   9932.16,
   43.8527,   9649.92,
    43.883,   9707.52,
   43.9133,   9527.04,
   43.9437,   9646.08,
    43.974,   9649.92,
   44.0043,    9638.4,
   44.0347,   9912.96,
    44.065,      9960,
   44.0953,   10250.9,
   44.1256,   10935.4,
    44.156,   11819.5,
   44.1863,   13705.9,
   44.2166,   17090.9,
    44.247,   19276.8,
   44.2773,   17971.2,
   44.3076,   16498.6,
   44.3379,   15635.5,
   44.3683,   14362.6,
   44.3986,   12302.4,
   44.4289,   11129.3,
   44.4593,   10340.2,
   44.4896,      9960,
   44.5199,   9770.88,
   44.5502,   9803.52,
   44.5806,   9621.12,
   44.6109,   9578.88,
   44.6412,   9891.84,
   44.6716,    9619.2,
   44.7019,   9688.32,
   44.7322,   9990.72,
   44.7625,   10500.5,
   44.7929,     10943,
   44.8232,   11960.6,
   44.8535,   13568.6,
   44.8838,   14588.2,
   44.9142,     14519,
   44.9445,   13931.5,
   44.9748,   13615.7,
   45.0052,   13304.6,
   45.0355,   13256.6,
   45.0658,   13432.3,
   45.0961,   14044.8,
   45.1265,   13495.7,
   45.1568,   12703.7,
   45.1871,   12209.3,
   45.2175,   11586.2,
   45.2478,   10903.7,
   45.2781,   9973.44,
   45.3084,   9344.64,
   45.3388,   9227.52,
   45.3691,    9028.8,
   45.3994,   8729.28,
   45.4298,   8800.32,
   45.4601,   8701.44,
   45.4904,   8586.24,
   45.5207,   8639.04,
   45.5511,   8632.32,
   45.5814,   8662.08,
   45.6117,   8588.16,
   45.6421,    8764.8,
   45.6724,   8591.04,
   45.7027,   8568.96,
    45.733,   8799.36,
   45.7634,    8582.4,
   45.7937,   8810.88,
    45.824,   8853.12,
   45.8543,   9063.36,
   45.8847,    8947.2,
    45.915,   9058.56,
   45.9453,   9260.16,
   45.9757,   9122.88,
    46.006,   9342.72,
   46.0363,      9648,
   46.0666,   10116.5,
    46.097,     10729,
   46.1273,   11644.8,
   46.1576,   12498.2,
    46.188,   12434.9,
   46.2183,     12385,
   46.2486,   12565.4,
   46.2789,   12470.4,
   46.3093,   12724.8,
   46.3396,   12583.7,
   46.3699,   13154.9,
   46.4003,   14032.3,
   46.4306,   14938.6,
   46.4609,   16573.4,
   46.4912,   18420.5,
   46.5216,   20628.5,
   46.5519,   23373.1,
   46.5822,   25985.3,
   46.6126,   28297.9,
   46.6429,   30458.9,
   46.6732,     32328,
   46.7035,   32967.4,
   46.7339,   32782.1,
   46.7642,   32200.3,
   46.7945,   30934.1,
   46.8249,     29183,
   46.8552,   27078.7,
   46.8855,   25394.9,
   46.9158,   23882.9,
   46.9462,   21787.2,
   46.9765,   20302.1,
   47.0068,   18990.7,
   47.0371,   18218.9,
   47.0675,   17263.7,
   47.0978,   16229.8,
   47.1281,   15363.8,
   47.1585,     14712,
   47.1888,   13794.2,
   47.2191,   13237.4,
   47.2494,   12932.2,
   47.2798,   12296.6,
   47.3101,   11915.5,
   47.3404,   11564.2,
   47.3708,   11470.1,
   47.4011,   11113.9,
   47.4314,   11065.9,
   47.4617,   10723.2,
   47.4921,   10773.1,
   47.5224,   10563.8,
   47.5527,   10561.9,
   47.5831,   10378.6,
   47.6134,   10432.3,
   47.6437,   10136.6,
    47.674,   9996.48,
   47.7044,    9892.8,
   47.7347,   9910.08,
    47.765,   9587.52,
   47.7954,   9875.52,
   47.8257,   9851.52,
    47.856,   9890.88,
   47.8863,   9943.68,
   47.9167,    9844.8,
    47.947,   9976.32,
   47.9773,   9987.84,
   48.0076,   10094.4,
    48.038,   10381.4,
   48.0683,   10394.9,
   48.0986,   10528.3,
    48.129,   10906.6,
   48.1593,   11585.3,
   48.1896,   11762.9,
   48.2199,   11618.9,
   48.2503,   11236.8,
   48.2806,   10901.8,
   48.3109,     10585,
   48.3413,   10086.7,
   48.3716,   9833.28,
   48.4019,   9184.32,
   48.4322,   9142.08,
   48.4626,   8767.68,
   48.4929,   8806.08,
   48.5232,   8592.96,
   48.5536,   8506.56,
   48.5839,   8298.24,
   48.6142,   8362.56,
   48.6445,   8424.96,
   48.6749,    8251.2,
   48.7052,   8351.04,
   48.7355,   8314.56,
   48.7659,      8232,
   48.7962,    8227.2,
   48.8265,   8178.24,
   48.8568,    8284.8,
   48.8872,   8043.84,
   48.9175,   7997.76,
   48.9478,   8065.92,
   48.9781,   8151.36,
   49.0085,   8147.52,
   49.0388,   8056.32,
   49.0691,   8124.48,
   49.0995,   8026.56,
   49.1298,   7869.12,
   49.1601,   7999.68,
   49.1904,    7958.4,
   49.2208,   7992.96,
   49.2511,    7987.2,
   49.2814,   7981.44,
   49.3118,   7955.52,
   49.3421,   8007.36,
   49.3724,   8167.68,
   49.4027,   7960.32,
   49.4331,   8064.96,
   49.4634,   8127.36,
   49.4937,      8016,
   49.5241,   8051.52,
   49.5544,   8208.96,
   49.5847,   8064.96,
    49.615,   8069.76,
   49.6454,   8021.76,
   49.6757,    8164.8,
    49.706,   8220.48,
   49.7364,   8425.92,
   49.7667,    8452.8,
    49.797,      8376,
   49.8273,   8503.68,
   49.8577,   8407.68,
    49.888,   8439.36,
   49.9183,   8458.56,
   49.9486,      8520,
    49.979,    8774.4,
   50.0093,   8896.32,
   50.0396,   8934.72,
     50.07,   8843.52,
   50.1003,   9309.12,
   50.1306,      9528,
   50.1609,   10130.9,
   50.1913,   11022.7,
   50.2216,   12732.5,
   50.2519,   13099.2,
   50.2823,   12237.1,
   50.3126,   11603.5,
   50.3429,   11497.9,
   50.3732,   11225.3,
   50.4036,   10577.3,
   50.4339,     10055,
   50.4642,    9513.6,
   50.4946,    9388.8,
   50.5249,   9490.56,
   50.5552,   9790.08,
   50.5855,   10256.6,
   50.6159,   11162.9,
   50.6462,   11431.7,
   50.6765,   11109.1,
   50.7069,   11365.4,
   50.7372,   11645.8,
   50.7675,   11554.6,
   50.7978,   11437.4,
   50.8282,   11299.2,
   50.8585,   11757.1,
   50.8888,   12155.5,
   50.9191,   12786.2,
   50.9495,     13535,
   50.9798,     14711,
   51.0101,   16115.5,
   51.0405,   17870.4,
   51.0708,   20022.7,
   51.1011,   22029.1,
   51.1314,   23762.9,
   51.1618,   25589.8,
   51.1921,     26543,
   51.2224,   27276.5,
   51.2528,   27103.7,
   51.2831,   26690.9,
   51.3134,     25536,
   51.3437,   24531.8,
   51.3741,   23191.7,
   51.4044,   21630.7,
   51.4347,     20255,
   51.4651,   19025.3,
   51.4954,   17655.4,
   51.5257,   16523.5,
    51.556,   15323.5,
   51.5864,   14445.1,
   51.6167,   13761.6,
    51.647,   13155.8,
   51.6774,   12611.5,
   51.7077,   12089.3,
    51.738,     11879,
   51.7683,   11484.5,
   51.7987,   11132.2,
    51.829,     11089,
   51.8593,   10778.9,
   51.8897,   10589.8,
     51.92,   10422.7,
   51.9503,   10363.2,
   51.9806,   10017.6,
    52.011,     10176,
   52.0413,   9685.44,
   52.0716,   9597.12,
   52.1019,   9650.88,
   52.1323,   9472.32,
   52.1626,   9515.52,
   52.1929,    9307.2,
   52.2233,   9093.12,
   52.2536,   9171.84,
   52.2839,   9053.76,
   52.3142,   9102.72,
   52.3446,   8901.12,
   52.3749,   8941.44,
   52.4052,   8989.44,
   52.4356,   9008.64,
   52.4659,   8955.84,
   52.4962,    9043.2,
   52.5265,   9191.04,
   52.5569,   9048.96,
   52.5872,   8941.44,
   52.6175,    8971.2,
   52.6479,   8799.36,
   52.6782,   8773.44,
   52.7085,   8695.68,
   52.7388,   8616.96,
   52.7692,   8608.32,
   52.7995,   8359.68,
   52.8298,      8592,
   52.8602,   8391.36,
   52.8905,   8436.48,
   52.9208,    8548.8,
   52.9511,   8494.08,
   52.9815,    8505.6,
   53.0118,   8304.96,
   53.0421,   8376.96,
   53.0724,   8528.64,
   53.1028,   8527.68,
   53.1331,   8473.92,
   53.1634,    8515.2,
   53.1938,   8680.32,
   53.2241,   8723.52,
   53.2544,   8960.64,
   53.2847,   8856.96,
   53.3151,   9368.64,
   53.3454,    9297.6,
   53.3757,   9234.24,
   53.4061,   9375.36,
   53.4364,   9083.52,
   53.4667,    9364.8,
    53.497,   9378.24,
   53.5274,   9404.16,
   53.5577,   9563.52,
    53.588,   10144.3,
   53.6184,   10684.8,
   53.6487,   11686.1,
    53.679,     13607,
   53.7093,   16924.8,
   53.7397,   20725.4,
     53.77,   21206.4,
   53.8003,   19144.3,
   53.8307,   17526.7,
    53.861,     17233,
   53.8913,   16422.7,
   53.9216,     14183,
    53.952,   12146.9,
   53.9823,   10957.4,
   54.0126,   10204.8,
   54.0429,    9667.2,
   54.0733,    9278.4,
   54.1036,    8932.8,
   54.1339,      8712,
   54.1643,   8806.08,
   54.1946,   8617.92,
   54.2249,   8546.88,
   54.2552,    8476.8,
   54.2856,    8347.2,
   54.3159,   8316.48,
   54.3462,   8477.76,
   54.3766,   8287.68,
   54.4069,    8596.8,
   54.4372,   8576.64,
   54.4675,   8674.56,
   54.4979,   8537.28,
   54.5282,   8521.92,
   54.5585,   8544.96,
   54.5889,   8405.76,
   54.6192,   8402.88,
   54.6495,   8469.12,
   54.6798,      8376,
   54.7102,   8158.08,
   54.7405,    8236.8,
   54.7708,   8139.84,
   54.8012,   8190.72,
   54.8315,   7941.12,
   54.8618,    8107.2,
   54.8921,   8223.36,
   54.9225,   8200.32,
   54.9528,    8236.8,
   54.9831,   8244.48,
   55.0134,   8208.96,
   55.0438,   8253.12,
   55.0741,   8221.44,
   55.1044,   8370.24,
   55.1348,   8339.52,
   55.1651,    8332.8,
   55.1954,   8281.92,
   55.2257,   8540.16,
   55.2561,   8460.48,
   55.2864,    8716.8,
   55.3167,   9058.56,
   55.3471,   9066.24,
   55.3774,   9266.88,
   55.4077,    9067.2,
    55.438,    9273.6,
   55.4684,   9363.84,
   55.4987,    9259.2,
    55.529,   9435.84,
   55.5594,   9344.64,
   55.5897,    9446.4,
     55.62,   9804.48,
   55.6503,   9953.28,
   55.6807,   10188.5,
    55.711,   10650.2,
   55.7413,   11100.5,
   55.7717,   11836.8,
    55.802,     12840,
   55.8323,   13499.5,
   55.8626,   14098.6,
    55.893,   14659.2,
   55.9233,   15203.5,
   55.9536,   15571.2,
   55.9839,   15977.3,
   56.0143,   16157.8,
   56.0446,   16362.2,
   56.0749,   16544.6,
   56.1053,   16779.8,
   56.1356,   17046.7,
   56.1659,   17569.9,
   56.1962,   17851.2,
   56.2266,   18280.3,
   56.2569,   18927.4,
   56.2872,   19814.4,
   56.3176,   20348.2,
   56.3479,   20580.5,
   56.3782,   21300.5,
   56.4085,   22119.4,
   56.4389,   23050.6,
   56.4692,   23239.7,
   56.4995,   24069.1,
   56.5299,   23844.5,
   56.5602,   24577.9,
   56.5905,   24723.8,
   56.6208,   24644.2,
   56.6512,   25747.2,
   56.6815,   26100.5,
   56.7118,   25724.2,
   56.7422,   24914.9,
   56.7725,     24097,
   56.8028,   23859.8,
   56.8331,   23917.4,
   56.8635,   22759.7,
   56.8938,   21400.3,
   56.9241,   20091.8,
   56.9544,   19174.1,
   56.9848,   18872.6,
   57.0151,   18306.2,
   57.0454,   17625.6,
   57.0758,   16681.9,
   57.1061,   16035.8,
   57.1364,     15672,
   57.1667,   15183.4,
   57.1971,   14775.4,
   57.2274,     14256,
   57.2577,   14252.2,
   57.2881,   14178.2,
   57.3184,   14150.4,
   57.3487,   14434.6,
    57.379,   14715.8,
   57.4094,   15301.4,
   57.4397,   16020.5,
     57.47,     17041,
   57.5004,   17785.9,
   57.5307,   18778.6,
    57.561,   19927.7,
   57.5913,   20946.2,
   57.6217,   22070.4,
    57.652,     23041,
   57.6823,   23757.1,
   57.7127,   24241.9,
    57.743,   24522.2,
   57.7733,   24594.2,
   57.8036,   24159.4,
    57.834,   23790.7,
   57.8643,   23394.2,
   57.8946,     22321,
    57.925,   21394.6,
   57.9553,   20623.7,
   57.9856,   19574.4,
   58.0159,   18872.6,
   58.0463,   17949.1,
   58.0766,   17055.4,
   58.1069,   16235.5,
   58.1372,   15634.6,
   58.1676,   15108.5,
   58.1979,   14487.4,
   58.2282,   13932.5,
   58.2586,   13305.6,
   58.2889,     12985,
   58.3192,   12882.2,
   58.3495,   12370.6,
   58.3799,   12201.6,
   58.4102,   11572.8,
   58.4405,   11490.2,
   58.4709,   11286.7,
   58.5012,   11050.6,
   58.5315,   10951.7,
   58.5618,   10807.7,
   58.5922,   10795.2,
   58.6225,   10644.5,
   58.6528,   10328.6,
   58.6832,   10276.8,
   58.7135,   10300.8,
   58.7438,   10323.8,
   58.7741,   10341.1,
   58.8045,   10448.6,
   58.8348,   10253.8,
   58.8651,   10449.6,
   58.8955,   10852.8,
   58.9258,   11730.2,
   58.9561,   12831.4,
   58.9864,   13805.8,
   59.0168,     13417,
   59.0471,   12507.8,
   59.0774,   12051.8,
   59.1077,   11940.5,
   59.1381,   11693.8,
   59.1684,   11009.3,
   59.1987,   10361.3,
   59.2291,   9935.04,
   59.2594,   9487.68,
   59.2897,   9357.12,
     59.32,   9174.72,
   59.3504,   9000.96,
   59.3807,   8823.36,
    59.411,      8688,
   59.4414,   8977.92,
   59.4717,   8684.16,
    59.502,      8568,
   59.5323,    8553.6,
   59.5627,    8419.2,
    59.593,   8535.36,
   59.6233,   8479.68,
   59.6537,   8363.52,
    59.684,   8292.48,
   59.7143,    8227.2,
   59.7446,    8409.6,
    59.775,   8216.64,
   59.8053,   8363.52,
   59.8356,   8119.68,
    59.866,   8153.28,
   59.8963,    8078.4,
   59.9266,    8030.4,
   59.9569,   7942.08,
   59.9873,   7920.96,
   60.0176,    8083.2,
   60.0479,    7881.6,
   60.0782,   7813.44,
   60.1086,   7976.64,
   60.1389,    8011.2,
   60.1692,   7778.88,
   60.1996,   7736.64,
   60.2299,   7865.28,
   60.2602,   7758.72,
   60.2905,   7787.52,
   60.3209,   7709.76,
   60.3512,   7704.96,
   60.3815,   7704.96,
   60.4119,   7654.08,
   60.4422,   7635.84,
   60.4725,   7453.44,
   60.5028,    7425.6,
   60.5332,   7520.64,
   60.5635,   7367.04,
   60.5938,   7395.84,
   60.6242,   7349.76,
   60.6545,   7284.48,
   60.6848,   7237.44,
   60.7151,    7502.4,
   60.7455,    7339.2,
   60.7758,   7253.76,
   60.8061,    7435.2,
   60.8365,    7396.8,
   60.8668,      7296,
   60.8971,      7392,
   60.9274,   7330.56,
   60.9578,   7304.64,
   60.9881,   7393.92,
   61.0184,   7576.32,
   61.0487,   7656.96,
   61.0791,   7518.72,
   61.1094,   7514.88,
   61.1397,   7365.12,
   61.1701,   7395.84,
   61.2004,      7512,
   61.2307,   7604.16,
    61.261,   7347.84,
   61.2914,    7286.4,
   61.3217,   7405.44,
    61.352,   7408.32,
   61.3824,   7326.72,
   61.4127,   7499.52,
    61.443,   7448.64,
   61.4733,   7567.68,
   61.5037,   7707.84,
    61.534,   8086.08,
   61.5643,   8473.92,
   61.5947,    9273.6,
    61.625,   10899.8,
   61.6553,   11727.4,
   61.6856,   11428.8,
    61.716,   10669.4,
   61.7463,    9955.2,
   61.7766,   10038.7,
    61.807,   9981.12,
   61.8373,   9507.84,
   61.8676,   8928.96,
   61.8979,   8187.84,
   61.9283,   7854.72,
   61.9586,   7698.24,
   61.9889,   7556.16,
   62.0192,   7266.24,
   62.0496,   7486.08,
   62.0799,    7286.4,
   62.1102,   7461.12,
   62.1406,   7557.12,
   62.1709,      7632,
   62.2012,   7923.84,
   62.2315,   8162.88,
   62.2619,   8685.12,
   62.2922,   9021.12,
   62.3225,   9349.44,
   62.3529,   9456.96,
   62.3832,    9033.6,
   62.4135,      8712,
   62.4438,   8461.44,
   62.4742,   8321.28,
   62.5045,   8058.24,
   62.5348,   7792.32,
   62.5652,   7547.52,
   62.5955,   7141.44,
   62.6258,   7068.48,
   62.6561,   7038.72,
   62.6865,   6903.36,
   62.7168,    6835.2,
   62.7471,    6835.2,
   62.7775,   6779.52,
   62.8078,   6712.32,
   62.8381,   6717.12,
   62.8684,   6765.12,
   62.8988,   6690.24,
   62.9291,   6665.28,
   62.9594,   6575.04,
   62.9898,   6592.32,
   63.0201,   6572.16,
   63.0504,   6624.96,
   63.0807,   6504.96,
   63.1111,   6557.76,
   63.1414,   6481.92,
   63.1717,   6530.88,
    63.202,   6520.32,
   63.2324,   6635.52,
   63.2627,   6645.12,
    63.293,   6653.76,
   63.3234,   6514.56,
   63.3537,    6484.8,
    63.384,   6606.72,
   63.4143,      6528,
   63.4447,   6648.96,
    63.475,   6814.08,
   63.5053,   6706.56,
   63.5357,   6863.04,
    63.566,   6660.48,
   63.5963,   6702.72,
   63.6266,   6511.68,
    63.657,   6605.76,
   63.6873,   6716.16,
   63.7176,   6596.16,
    63.748,   6515.52,
   63.7783,   6392.64,
   63.8086,   6438.72,
   63.8389,      6408,
   63.8693,   6353.28,
   63.8996,   6333.12,
   63.9299,   6312.96,
   63.9603,   6282.24,
   63.9906,    6355.2,
   64.0209,    6206.4,
   64.0512,   6363.84,
   64.0816,   6251.52,
   64.1119,   6269.76,
   64.1422,      6264,
   64.1725,   6341.76,
   64.2029,    6364.8,
   64.2332,   6256.32,
   64.2635,   6391.68,
   64.2939,   6309.12,
   64.3242,    6350.4,
   64.3545,   6193.92,
   64.3848,   6041.28,
   64.4152,    6225.6,
   64.4455,   6298.56,
   64.4758,   6214.08,
   64.5062,   6191.04,
   64.5365,   6348.48,
   64.5668,   6168.96,
   64.5971,   6250.56,
   64.6275,    6211.2,
   64.6578,   6165.12,
   64.6881,   6258.24,
   64.7185,   6240.96,
   64.7488,   6263.04,
   64.7791,   6245.76,
   64.8094,   6287.04,
   64.8398,   6191.04,
   64.8701,   6222.72,
   64.9004,    6153.6,
   64.9308,   6275.52,
   64.9611,   6247.68,
   64.9914,   6400.32,
   65.0217,   6214.08,
   65.0521,   6404.16,
   65.0824,   6333.12,
   65.1127,      6240,
    65.143,   6272.64,
   65.1734,   6239.04,
   65.2037,   6168.96,
    65.234,   6170.88,
   65.2644,   6237.12,
   65.2947,   6173.76,
    65.325,   6293.76,
   65.3553,    6124.8,
   65.3857,   6190.08,
    65.416,   6080.64,
   65.4463,   6224.64,
   65.4767,    6038.4,
    65.507,   6191.04,
   65.5373,   5992.32,
   65.5676,    6086.4,
    65.598,   5994.24,
   65.6283,   6035.52,
   65.6586,   6126.72,
    65.689,    5990.4,
   65.7193,   6179.52,
   65.7496,    6115.2,
   65.7799,   6207.36,
   65.8103,   6077.76,
   65.8406,   6030.72,
   65.8709,   5996.16,
   65.9013,   6128.64,
   65.9316,    6062.4,
   65.9619,   6173.76,
   65.9922,      6216,
   66.0226,      6168,
   66.0529,   6047.04,
   66.0832,   6263.04,
   66.1135,   6198.72,
   66.1439,   6181.44,
   66.1742,   6231.36,
   66.2045,   6373.44,
   66.2349,    6316.8,
   66.2652,   6192.96,
   66.2955,   6200.64,
   66.3258,   6250.56,
   66.3562,   6231.36,
   66.3865,   6132.48,
   66.4168,   6106.56,
   66.4472,   6097.92,
   66.4775,   6107.52,
   66.5078,      6120,
   66.5381,   6003.84,
   66.5685,    6009.6,
   66.5988,    5961.6,
   66.6291,      6024,
   66.6595,   5972.16,
   66.6898,   6018.24,
   66.7201,   6010.56,
   66.7504,    6225.6,
   66.7808,   6362.88,
   66.8111,   6328.32,
   66.8414,   6306.24,
   66.8718,   6221.76,
   66.9021,      6438,
   66.9324,      6341,
   66.9627,      6491,
   66.9931,      6642,
   67.0234,      6683,
   67.0537,      6591,
    67.084,      6369,
   67.1144,      6449,
   67.1447,      6387,
    67.175,      6471,
   67.2054,      6493,
   67.2357,      6441,
    67.266,      6547,
   67.2963,      6549,
   67.3267,      6615,
    67.357,      6896,
   67.3873,      6953,
   67.4177,      7180,
    67.448,      7281,
   67.4783,      7335,
   67.5086,      7587,
    67.539,      7888,
   67.5693,      7953,
   67.5996,      7996,
     67.63,      8131,
   67.6603,      8145,
   67.6906,      8192,
   67.7209,      8257,
   67.7513,      8240,
   67.7816,      8382,
   67.8119,      8562,
   67.8423,      8604,
   67.8726,      8583,
   67.9029,      8470,
   67.9332,      8029,
   67.9636,      8192,
   67.9939,      7999,
   68.0242,      8114,
   68.0546,      7914,
   68.0849,      7705,
   68.1152,      7759,
   68.1455,      7507,
   68.1759,      7354,
   68.2062,      7419,
   68.2365,      7383,
   68.2668,      7687,
   68.2972,      7645,
   68.3275,      7932,
   68.3578,      8183,
   68.3882,      8320,
   68.4185,      8664,
   68.4488,      8853,
   68.4791,      9141,
   68.5095,      9550,
   68.5398,     10053,
   68.5701,     10592,
   68.6005,     10707,
   68.6308,     10823,
   68.6611,     11205,
   68.6914,     11186,
   68.7218,     11152,
   68.7521,     11230,
   68.7824,     10997,
   68.8128,     10879,
   68.8431,     10653,
   68.8734,     10594,
   68.9037,     10299,
   68.9341,      9977,
   68.9644,      9638,
   68.9947,      9611,
   69.0251,      9228,
   69.0554,      8883,
   69.0857,      8713,
    69.116,      8293,
   69.1464,      8294,
   69.1767,      8004,
    69.207,      7778,
   69.2373,      7832,
   69.2677,      7738,
    69.298,      7463,
   69.3283,      7384,
   69.3587,      7216,
    69.389,      7168,
   69.4193,      7181,
   69.4496,      7192,
     69.48,      7029,
   69.5103,      7092,
   69.5406,      7091,
    69.571,      6952,
   69.6013,      6915,
   69.6316,      6827,
   69.6619,      6763,
   69.6923,      6772,
   69.7226,      6738,
   69.7529,      6708,
   69.7833,      6523,
   69.8136,      6626,
   69.8439,      6650,
   69.8742,      6628,
   69.9046,      6595,
   69.9349,      6896,
   69.9652,      6931,
   69.9956,      7066,
