;RAW4.00
[RawHeader]
Date=04/21/2019
EstimatedTotalTime=2311.04
FurtherDQLReading=0
HardwareIndicator=65519
MeasuredTotalTime=2311.04
MeasurementFlag=1
NumberOfMeasuredRanges=1
NumberOfRanges=1
Time=11:35:49

[VarInfo]
Type=USER
Flags=0
Value=Bruker Service

[VarInfo]
Type=SAMPLEID
Flags=0
Value=Commander Sample ID

[VarInfo]
Type=COMMENT
Flags=0
Value=

[VarInfo]
Type=UTF
Flags=0
Value=

[VarInfo]
Type=CREATOR
Flags=0
Value=BrmlToV4Converter

[VarInfo]
Type=CREATOR_VERSION
Flags=0
Value=7.3.0.0

[HardwareConfiguration]
AbsorptionFactor=9999
ActivateAbsorber=0
Alpha1=1.78897
Alpha2=1.79285
AlphaAverage=1.79026
AlphaRatio=0.5
Analyzer=0
Anode=Co
AntiScatteringSlit=9999
BeamOpticsFlags=0
Beta=1.62079
BetaRelativeIntensity=0
DeactivateAbsorber=0
DetectorSlit=9999
DivergenceSlit=1
GoniometerControl=0
GoniometerDiameter=282
GoniometerModel=256
GoniometerStage=7
Monochromator=0
NearSampleSlit=9999
PrimarySollerSlit=9999
SampleChanger=0
SecondSollerSlit=9999
SynchronousAxis=0
ThinFilmAttachment=9999
WaveUnit=A

[RangeHeader]
ActuallyUsedLambda=1.79026
AdditionalDetectorMask=257
DataRecordLength=4
DelayTime=0
DisplayPlaneNumber=0
EstimatedScanTime=2311
ExtraParametersMask=0
GeneratorCurrent=10
GeneratorVoltage=30
Increment=0.0303281
Increment3=0
NumberOfCompletedData=2144
NumberOfCounts=1
NumberOfDetectors=0
NumberOfDrives=2
NumberOfEncoderDrives=0
NumberOfMeasuredData=2144
NumberOfVaryingParameters=0
RangeStartTime=0
RotationSpeed=1
ScanMode=1
ScanType=Locked Coupled
SimulatedMeasConditions=0
SlitChangerIn=0
SmootingWidth=0
Start=5.00234
Steps=2144
SynchronousRotation=0
Time=165

[VarInfo]
Type=PSD_DISCRIM
Flags=0
Value=0.11;0.25

[PSD]
ActualTwoTheta=9999
FirstUsedChannel=0
FixedPSD=0
PSDOpening=5.00414
PSDType=5

[Drive]
DriveFlags=1
DriveName=2Theta
DriveNumber=2
DriveOffset=0
OffsetIndex=0
OscillationAmplitude=0
OscillationSpeed=0
StartPosition=5.00234

[Drive]
DriveFlags=1
DriveName=Theta
DriveNumber=1
DriveOffset=0
OffsetIndex=0
OscillationAmplitude=0
OscillationSpeed=0
StartPosition=2.50117

[Data]
     Angle,       PSD,
   5.00234,      9047,
   5.03267,      8943,
     5.063,      8615,
   5.09333,      8669,
   5.12365,      8458,
   5.15398,      8456,
   5.18431,      8323,
   5.21464,      8106,
   5.24497,      8069,
   5.27529,      8082,
   5.30562,      7636,
   5.33595,      7660,
   5.36628,      7306,
   5.39661,      7086,
   5.42694,      6857,
   5.45726,      6527,
   5.48759,      6504,
   5.51792,      6404,
   5.54825,      6284,
   5.57858,      6150,
    5.6089,      6065,
   5.63923,      5970,
   5.66956,      5939,
   5.69989,      5838,
   5.73022,      5571,
   5.76055,      5676,
   5.79087,      5505,
    5.8212,      5441,
   5.85153,      5340,
   5.88186,      5254,
   5.91219,      5268,
   5.94251,      5114,
   5.97284,      5208,
   6.00317,      5032,
    6.0335,      5069,
   6.06383,      4860,
   6.09415,      4970,
   6.12448,      4668,
   6.15481,      4740,
   6.18514,      4542,
   6.21547,      4790,
    6.2458,      4619,
   6.27612,      4533,
   6.30645,      4569,
   6.33678,      4354,
   6.36711,      4352,
   6.39744,      4167,
   6.42776,      4246,
   6.45809,      4172,
   6.48842,      4113,
   6.51875,      3982,
   6.54908,      4068,
    6.5794,      3883,
   6.60973,      3757,
   6.64006,      3821,
   6.67039,      3632,
   6.70072,      3700,
   6.73105,      3628,
   6.76137,      3617,
    6.7917,      3580,
   6.82203,      3569,
   6.85236,      3605,
   6.88269,      3478,
   6.91301,      3550,
   6.94334,      3374,
   6.97367,      3327,
     7.004,      3367,
   7.03433,      3323,
   7.06466,      3243,
   7.09498,      3273,
   7.12531,      3205,
   7.15564,      3076,
   7.18597,      3092,
    7.2163,      2961,
   7.24662,      3049,
   7.27695,      3003,
   7.30728,      3001,
   7.33761,      2896,
   7.36794,      2901,
   7.39826,      2884,
   7.42859,      2904,
   7.45892,      2769,
   7.48925,      2803,
   7.51958,      2736,
   7.54991,      2784,
   7.58023,      2691,
   7.61056,      2708,
   7.64089,      2572,
   7.67122,      2726,
   7.70155,      2593,
   7.73187,      2569,
    7.7622,      2559,
   7.79253,      2460,
   7.82286,      2473,
   7.85319,      2317,
   7.88352,      2342,
   7.91384,      2316,
   7.94417,      2302,
    7.9745,      2390,
   8.00483,      2300,
   8.03516,      2267,
   8.06548,      2199,
   8.09581,      2249,
   8.12614,      2170,
   8.15647,      2177,
    8.1868,      2190,
   8.21712,      2177,
   8.24745,      2113,
   8.27778,      2093,
   8.30811,      2031,
   8.33844,      2036,
   8.36877,      2089,
   8.39909,      2061,
   8.42942,      2000,
   8.45975,      1932,
   8.49008,      1993,
   8.52041,      1926,
   8.55073,      1872,
   8.58106,      1918,
   8.61139,      1863,
   8.64172,      1922,
   8.67205,      1838,
   8.70237,      1866,
    8.7327,      1821,
   8.76303,      1881,
   8.79336,      1846,
   8.82369,      1788,
   8.85402,      1813,
   8.88434,      1724,
   8.91467,      1770,
     8.945,      1712,
   8.97533,      1689,
   9.00566,      1690,
   9.03598,      1726,
   9.06631,      1684,
   9.09664,      1600,
   9.12697,      1593,
    9.1573,      1570,
   9.18763,      1570,
   9.21795,      1525,
   9.24828,      1641,
   9.27861,      1543,
   9.30894,      1545,
   9.33927,      1550,
   9.36959,      1605,
   9.39992,      1553,
   9.43025,      1495,
   9.46058,      1477,
   9.49091,      1528,
   9.52123,      1450,
   9.55156,      1453,
   9.58189,      1470,
   9.61222,      1430,
   9.64255,      1471,
   9.67288,      1441,
    9.7032,      1411,
   9.73353,      1449,
   9.76386,      1473,
   9.79419,      1460,
   9.82452,      1436,
   9.85484,      1408,
   9.88517,      1406,
    9.9155,      1403,
   9.94583,      1357,
   9.97616,      1359,
   10.0065,      1353,
   10.0368,      1423,
   10.0671,      1328,
   10.0975,      1341,
   10.1278,      1299,
   10.1581,      1377,
   10.1885,      1365,
   10.2188,      1328,
   10.2491,      1402,
   10.2794,      1287,
   10.3098,      1335,
   10.3401,      1332,
   10.3704,      1302,
   10.4008,      1309,
   10.4311,      1336,
   10.4614,      1298,
   10.4917,      1270,
   10.5221,      1287,
   10.5524,      1239,
   10.5827,      1285,
    10.613,      1243,
   10.6434,      1266,
   10.6737,      1246,
    10.704,      1215,
   10.7344,      1221,
   10.7647,      1252,
    10.795,      1268,
   10.8253,      1206,
   10.8557,      1254,
    10.886,      1232,
   10.9163,      1170,
   10.9467,      1180,
    10.977,      1210,
   11.0073,      1161,
   11.0376,      1190,
    11.068,      1164,
   11.0983,      1190,
   11.1286,      1277,
    11.159,      1205,
   11.1893,      1162,
   11.2196,      1189,
   11.2499,      1190,
   11.2803,      1153,
   11.3106,      1110,
   11.3409,      1138,
   11.3713,      1122,
   11.4016,      1172,
   11.4319,      1112,
   11.4622,      1112,
   11.4926,      1194,
   11.5229,      1111,
   11.5532,      1093,
   11.5835,      1167,
   11.6139,      1172,
   11.6442,      1151,
   11.6745,      1103,
   11.7049,      1141,
   11.7352,      1072,
   11.7655,      1185,
   11.7958,      1154,
   11.8262,      1134,
   11.8565,      1071,
   11.8868,      1116,
   11.9172,      1133,
   11.9475,      1108,
   11.9778,      1104,
   12.0081,      1103,
   12.0385,      1096,
   12.0688,      1070,
   12.0991,      1066,
   12.1295,      1077,
   12.1598,      1054,
   12.1901,      1041,
   12.2204,      1113,
   12.2508,      1131,
   12.2811,      1063,
   12.3114,      1069,
   12.3418,      1028,
   12.3721,      1058,
   12.4024,      1061,
   12.4327,      1022,
   12.4631,      1026,
   12.4934,      1081,
   12.5237,      1050,
    12.554,      1007,
   12.5844,      1011,
   12.6147,      1032,
    12.645,      1020,
   12.6754,      1077,
   12.7057,      1046,
    12.736,      1023,
   12.7663,      1016,
   12.7967,      1054,
    12.827,      1016,
   12.8573,       980,
   12.8877,      1019,
    12.918,      1022,
   12.9483,      1004,
   12.9786,       993,
    13.009,       943,
   13.0393,       972,
   13.0696,      1005,
      13.1,       977,
   13.1303,      1038,
   13.1606,       970,
   13.1909,       996,
   13.2213,       977,
   13.2516,       945,
   13.2819,      1016,
   13.3123,       988,
   13.3426,      1055,
   13.3729,      1124,
   13.4032,      1103,
   13.4336,      1172,
   13.4639,      1283,
   13.4942,      1408,
   13.5245,      1335,
   13.5549,      1151,
   13.5852,      1122,
   13.6155,      1003,
   13.6459,       978,
   13.6762,      1008,
   13.7065,       981,
   13.7368,       993,
   13.7672,       951,
   13.7975,       954,
   13.8278,       874,
   13.8582,      1021,
   13.8885,       958,
   13.9188,       916,
   13.9491,       950,
   13.9795,       933,
   14.0098,       954,
   14.0401,       905,
   14.0705,       972,
   14.1008,       950,
   14.1311,       927,
   14.1614,       934,
   14.1918,       955,
   14.2221,       908,
   14.2524,       824,
   14.2828,       885,
   14.3131,       891,
   14.3434,       879,
   14.3737,       948,
   14.4041,       995,
   14.4344,       938,
   14.4647,       928,
   14.4951,       942,
   14.5254,       932,
   14.5557,       924,
    14.586,       886,
   14.6164,       882,
   14.6467,       907,
    14.677,       866,
   14.7073,       842,
   14.7377,       864,
    14.768,       856,
   14.7983,       846,
   14.8287,       907,
    14.859,       834,
   14.8893,       866,
   14.9196,       839,
     14.95,       870,
   14.9803,       900,
   15.0106,       891,
    15.041,       875,
   15.0713,       869,
   15.1016,       841,
   15.1319,       799,
   15.1623,       884,
   15.1926,       843,
   15.2229,       880,
   15.2533,       903,
   15.2836,       889,
   15.3139,       834,
   15.3442,       834,
   15.3746,       838,
   15.4049,       821,
   15.4352,       799,
   15.4656,       813,
   15.4959,       838,
   15.5262,       783,
   15.5565,       847,
   15.5869,       851,
   15.6172,       822,
   15.6475,       832,
   15.6778,       859,
   15.7082,       776,
   15.7385,       830,
   15.7688,       839,
   15.7992,       829,
   15.8295,       842,
   15.8598,       844,
   15.8901,       855,
   15.9205,       780,
   15.9508,       758,
   15.9811,       798,
   16.0115,       808,
   16.0418,       756,
   16.0721,       783,
   16.1024,       792,
   16.1328,       792,
   16.1631,       839,
   16.1934,       809,
   16.2238,       786,
   16.2541,       809,
   16.2844,       777,
   16.3147,       757,
   16.3451,       792,
   16.3754,       826,
   16.4057,       809,
   16.4361,       805,
   16.4664,       792,
   16.4967,       828,
    16.527,       825,
   16.5574,       865,
   16.5877,       859,
    16.618,      1041,
   16.6483,      1078,
   16.6787,      1197,
    16.709,      1032,
   16.7393,       907,
   16.7697,       826,
      16.8,       799,
   16.8303,       791,
   16.8606,       730,
    16.891,       800,
   16.9213,       821,
   16.9516,       774,
    16.982,       790,
   17.0123,       790,
   17.0426,       771,
   17.0729,       769,
   17.1033,       754,
   17.1336,       786,
   17.1639,       723,
   17.1943,       734,
   17.2246,       724,
   17.2549,       762,
   17.2852,       686,
   17.3156,       726,
   17.3459,       719,
   17.3762,       723,
   17.4066,       761,
   17.4369,       763,
   17.4672,       695,
   17.4975,       795,
   17.5279,       733,
   17.5582,       764,
   17.5885,       686,
   17.6188,       721,
   17.6492,       710,
   17.6795,       711,
   17.7098,       768,
   17.7402,       759,
   17.7705,       695,
   17.8008,       723,
   17.8311,       716,
   17.8615,       746,
   17.8918,       742,
   17.9221,       694,
   17.9525,       738,
   17.9828,       746,
   18.0131,       726,
   18.0434,       716,
   18.0738,       759,
   18.1041,       692,
   18.1344,       651,
   18.1648,       689,
   18.1951,       689,
   18.2254,       715,
   18.2557,       658,
   18.2861,       756,
   18.3164,       800,
   18.3467,       737,
   18.3771,       728,
   18.4074,       706,
   18.4377,       666,
    18.468,       706,
   18.4984,       721,
   18.5287,       694,
    18.559,       731,
   18.5893,       736,
   18.6197,       720,
     18.65,       726,
   18.6803,       675,
   18.7107,       728,
    18.741,       673,
   18.7713,       723,
   18.8016,       721,
    18.832,       730,
   18.8623,       705,
   18.8926,       729,
    18.923,       676,
   18.9533,       672,
   18.9836,       721,
   19.0139,       675,
   19.0443,       731,
   19.0746,       673,
   19.1049,       663,
   19.1353,       670,
   19.1656,       701,
   19.1959,       690,
   19.2262,       699,
   19.2566,       678,
   19.2869,       695,
   19.3172,       720,
   19.3476,       672,
   19.3779,       713,
   19.4082,       688,
   19.4385,       680,
   19.4689,       654,
   19.4992,       690,
   19.5295,       692,
   19.5599,       698,
   19.5902,       711,
   19.6205,       709,
   19.6508,       684,
   19.6812,       728,
   19.7115,       699,
   19.7418,       708,
   19.7721,       658,
   19.8025,       641,
   19.8328,       640,
   19.8631,       704,
   19.8935,       637,
   19.9238,       688,
   19.9541,       702,
   19.9844,       659,
   20.0148,       667,
   20.0451,       636,
   20.0754,       666,
   20.1058,       683,
   20.1361,       703,
   20.1664,       661,
   20.1967,       629,
   20.2271,       699,
   20.2574,       670,
   20.2877,       669,
   20.3181,       705,
   20.3484,       656,
   20.3787,       650,
    20.409,       680,
   20.4394,       713,
   20.4697,       626,
      20.5,       634,
   20.5304,       687,
   20.5607,       704,
    20.591,       664,
   20.6213,       664,
   20.6517,       656,
    20.682,       680,
   20.7123,       674,
   20.7426,       642,
    20.773,       605,
   20.8033,       678,
   20.8336,       666,
    20.864,       685,
   20.8943,       645,
   20.9246,       616,
   20.9549,       664,
   20.9853,       659,
   21.0156,       673,
   21.0459,       683,
   21.0763,       672,
   21.1066,       647,
   21.1369,       654,
   21.1672,       615,
   21.1976,       693,
   21.2279,       633,
   21.2582,       644,
   21.2886,       608,
   21.3189,       625,
   21.3492,       672,
   21.3795,       673,
   21.4099,       676,
   21.4402,       683,
   21.4705,       639,
   21.5009,       627,
   21.5312,       676,
   21.5615,       645,
   21.5918,       615,
   21.6222,       625,
   21.6525,       618,
   21.6828,       655,
   21.7131,       637,
   21.7435,       684,
   21.7738,       657,
   21.8041,       687,
   21.8345,       630,
   21.8648,       665,
   21.8951,       622,
   21.9254,       640,
   21.9558,       670,
   21.9861,       620,
   22.0164,       646,
   22.0468,       602,
   22.0771,       639,
   22.1074,       682,
   22.1377,       646,
   22.1681,       644,
   22.1984,       585,
   22.2287,       646,
   22.2591,       676,
   22.2894,       643,
   22.3197,       631,
     22.35,       660,
   22.3804,       666,
   22.4107,       656,
    22.441,       671,
   22.4714,       637,
   22.5017,       592,
    22.532,       647,
   22.5623,       712,
   22.5927,       655,
    22.623,       695,
   22.6533,       674,
   22.6836,       648,
    22.714,       629,
   22.7443,       685,
   22.7746,       696,
    22.805,       704,
   22.8353,       674,
   22.8656,       761,
   22.8959,       752,
   22.9263,       723,
   22.9566,       780,
   22.9869,       751,
   23.0173,       743,
   23.0476,       732,
   23.0779,       782,
   23.1082,       788,
   23.1386,       769,
   23.1689,       734,
   23.1992,       768,
   23.2296,       742,
   23.2599,       694,
   23.2902,       645,
   23.3205,       700,
   23.3509,       815,
   23.3812,       801,
   23.4115,       750,
   23.4419,       762,
   23.4722,       725,
   23.5025,       623,
   23.5328,       655,
   23.5632,       695,
   23.5935,       715,
   23.6238,       717,
   23.6541,       686,
   23.6845,       669,
   23.7148,       668,
   23.7451,       628,
   23.7755,       626,
   23.8058,       647,
   23.8361,       647,
   23.8664,       698,
   23.8968,       634,
   23.9271,       707,
   23.9574,       647,
   23.9878,       667,
   24.0181,       734,
   24.0484,       809,
   24.0787,       868,
   24.1091,       991,
   24.1394,       978,
   24.1697,       883,
   24.2001,       783,
   24.2304,       737,
   24.2607,       753,
    24.291,       720,
   24.3214,       682,
   24.3517,       686,
    24.382,       633,
   24.4124,       610,
   24.4427,       695,
    24.473,       676,
   24.5033,       702,
   24.5337,       708,
    24.564,       685,
   24.5943,       660,
   24.6246,       582,
    24.655,       642,
   24.6853,       617,
   24.7156,       600,
    24.746,       605,
   24.7763,       633,
   24.8066,       635,
   24.8369,       596,
   24.8673,       592,
   24.8976,       573,
   24.9279,       593,
   24.9583,       596,
   24.9886,       591,
   25.0189,       579,
   25.0492,       601,
   25.0796,       608,
   25.1099,       601,
   25.1402,       612,
   25.1706,       605,
   25.2009,       536,
   25.2312,       595,
   25.2615,       578,
   25.2919,       610,
   25.3222,       618,
   25.3525,       580,
   25.3829,       590,
   25.4132,       625,
   25.4435,       581,
   25.4738,       578,
   25.5042,       540,
   25.5345,       562,
   25.5648,       565,
   25.5952,       615,
   25.6255,       548,
   25.6558,       583,
   25.6861,       561,
   25.7165,       587,
   25.7468,       574,
   25.7771,       590,
   25.8074,       574,
   25.8378,       592,
   25.8681,       566,
   25.8984,       551,
   25.9288,       579,
   25.9591,       561,
   25.9894,       557,
   26.0197,       555,
   26.0501,       585,
   26.0804,       535,
   26.1107,       584,
   26.1411,       584,
   26.1714,       613,
   26.2017,       529,
    26.232,       584,
   26.2624,       556,
   26.2927,       551,
    26.323,       573,
   26.3534,       554,
   26.3837,       558,
    26.414,       556,
   26.4443,       595,
   26.4747,       606,
    26.505,       561,
   26.5353,       578,
   26.5657,       579,
    26.596,       563,
   26.6263,       574,
   26.6566,       587,
    26.687,       579,
   26.7173,       563,
   26.7476,       567,
   26.7779,       615,
   26.8083,       613,
   26.8386,       621,
   26.8689,       617,
   26.8993,       653,
   26.9296,       657,
   26.9599,       707,
   26.9902,       755,
   27.0206,       790,
   27.0509,       851,
   27.0812,       984,
   27.1116,       986,
   27.1419,      1015,
   27.1722,      1033,
   27.2025,      1034,
   27.2329,       967,
   27.2632,       888,
   27.2935,       834,
   27.3239,       828,
   27.3542,       728,
   27.3845,       655,
   27.4148,       695,
   27.4452,       628,
   27.4755,       670,
   27.5058,       655,
   27.5362,       652,
   27.5665,       638,
   27.5968,       643,
   27.6271,       612,
   27.6575,       576,
   27.6878,       568,
   27.7181,       564,
   27.7484,       550,
   27.7788,       586,
   27.8091,       560,
   27.8394,       584,
   27.8698,       578,
   27.9001,       577,
   27.9304,       560,
   27.9607,       527,
   27.9911,       553,
   28.0214,       550,
   28.0517,       586,
   28.0821,       592,
   28.1124,       549,
   28.1427,       538,
    28.173,       549,
   28.2034,       552,
   28.2337,       564,
    28.264,       560,
   28.2944,       532,
   28.3247,       592,
    28.355,       503,
   28.3853,       521,
   28.4157,       530,
    28.446,       523,
   28.4763,       512,
   28.5067,       517,
    28.537,       566,
   28.5673,       514,
   28.5976,       543,
    28.628,       546,
   28.6583,       551,
   28.6886,       516,
   28.7189,       483,
   28.7493,       483,
   28.7796,       497,
   28.8099,       540,
   28.8403,       501,
   28.8706,       516,
   28.9009,       543,
   28.9312,       546,
   28.9616,       553,
   28.9919,       502,
   29.0222,       534,
   29.0526,       451,
   29.0829,       512,
   29.1132,       523,
   29.1435,       520,
   29.1739,       484,
   29.2042,       551,
   29.2345,       501,
   29.2649,       510,
   29.2952,       533,
   29.3255,       495,
   29.3558,       506,
   29.3862,       528,
   29.4165,       518,
   29.4468,       578,
   29.4772,       558,
   29.5075,       528,
   29.5378,       542,
   29.5681,       559,
   29.5985,       532,
   29.6288,       513,
   29.6591,       537,
   29.6894,       536,
   29.7198,       564,
   29.7501,       511,
   29.7804,       535,
   29.8108,       527,
   29.8411,       556,
   29.8714,       516,
   29.9017,       536,
   29.9321,       561,
   29.9624,       563,
   29.9927,       548,
   30.0231,       575,
   30.0534,       558,
   30.0837,       555,
    30.114,       605,
   30.1444,       613,
   30.1747,       645,
    30.205,       639,
   30.2354,       647,
   30.2657,       720,
    30.296,       724,
   30.3263,       818,
   30.3567,       992,
    30.387,      1154,
   30.4173,      1416,
   30.4477,      2093,
    30.478,      3069,
   30.5083,      3963,
   30.5386,      3941,
    30.569,      3126,
   30.5993,      2600,
   30.6296,      1712,
     30.66,      1284,
   30.6903,      1062,
   30.7206,       877,
   30.7509,       880,
   30.7813,       777,
   30.8116,       716,
   30.8419,       709,
   30.8722,       651,
   30.9026,       662,
   30.9329,       649,
   30.9632,       687,
   30.9936,       748,
   31.0239,       813,
   31.0542,       810,
   31.0845,       725,
   31.1149,       717,
   31.1452,       662,
   31.1755,       643,
   31.2059,       677,
   31.2362,       714,
   31.2665,       749,
   31.2968,       668,
   31.3272,       703,
   31.3575,       760,
   31.3878,       736,
   31.4182,       736,
   31.4485,       766,
   31.4788,       794,
   31.5091,       874,
   31.5395,       883,
   31.5698,      1094,
   31.6001,      1253,
   31.6305,      1527,
   31.6608,      1952,
   31.6911,      2030,
   31.7214,      2008,
   31.7518,      1672,
   31.7821,      1359,
   31.8124,      1091,
   31.8427,       911,
   31.8731,       775,
   31.9034,       720,
   31.9337,       661,
   31.9641,       607,
   31.9944,       594,
   32.0247,       610,
    32.055,       628,
   32.0854,       565,
   32.1157,       546,
    32.146,       506,
   32.1764,       526,
   32.2067,       548,
    32.237,       538,
   32.2673,       505,
   32.2977,       547,
    32.328,       525,
   32.3583,       529,
   32.3887,       455,
    32.419,       494,
   32.4493,       514,
   32.4796,       509,
     32.51,       510,
   32.5403,       495,
   32.5706,       531,
    32.601,       517,
   32.6313,       504,
   32.6616,       529,
   32.6919,       465,
   32.7223,       486,
   32.7526,       482,
   32.7829,       460,
   32.8132,       507,
   32.8436,       480,
   32.8739,       508,
   32.9042,       508,
   32.9346,       456,
   32.9649,       451,
   32.9952,       508,
   33.0255,       473,
   33.0559,       475,
   33.0862,       459,
   33.1165,       470,
   33.1469,       501,
   33.1772,       485,
   33.2075,       474,
   33.2378,       472,
   33.2682,       485,
   33.2985,       510,
   33.3288,       478,
   33.3592,       487,
   33.3895,       462,
   33.4198,       469,
   33.4501,       502,
   33.4805,       495,
   33.5108,       500,
   33.5411,       483,
   33.5715,       500,
   33.6018,       468,
   33.6321,       479,
   33.6624,       508,
   33.6928,       499,
   33.7231,       520,
   33.7534,       557,
   33.7837,       530,
   33.8141,       543,
   33.8444,       553,
   33.8747,       665,
   33.9051,       671,
   33.9354,       701,
   33.9657,       644,
    33.996,       631,
   34.0264,       554,
   34.0567,       603,
    34.087,       616,
   34.1174,       611,
   34.1477,       682,
    34.178,       712,
   34.2083,       743,
   34.2387,       921,
    34.269,      1157,
   34.2993,      1434,
   34.3297,      1477,
     34.36,      1522,
   34.3903,      1560,
   34.4206,      1572,
    34.451,      1769,
   34.4813,      2020,
   34.5116,      2461,
    34.542,      3010,
   34.5723,      3560,
   34.6026,      3732,
   34.6329,      4144,
   34.6633,      4320,
   34.6936,      4433,
   34.7239,      4284,
   34.7542,      3859,
   34.7846,      3727,
   34.8149,      3197,
   34.8452,      2833,
   34.8756,      2573,
   34.9059,      2218,
   34.9362,      1928,
   34.9665,      1684,
   34.9969,      1516,
   35.0272,      1354,
   35.0575,      1276,
   35.0879,      1158,
   35.1182,      1106,
   35.1485,       954,
   35.1788,       931,
   35.2092,       895,
   35.2395,       869,
   35.2698,       830,
   35.3002,       853,
   35.3305,       757,
   35.3608,       760,
   35.3911,       773,
   35.4215,       721,
   35.4518,       786,
   35.4821,       752,
   35.5125,       735,
   35.5428,       784,
   35.5731,       733,
   35.6034,       746,
   35.6338,       694,
   35.6641,       736,
   35.6944,       721,
   35.7248,       713,
   35.7551,       634,
   35.7854,       654,
   35.8157,       662,
   35.8461,       607,
   35.8764,       678,
   35.9067,       719,
    35.937,       669,
   35.9674,       684,
   35.9977,       764,
    36.028,       648,
   36.0584,       640,
   36.0887,       640,
    36.119,       596,
   36.1493,       597,
   36.1797,       628,
     36.21,       719,
   36.2403,       786,
   36.2707,       721,
    36.301,       612,
   36.3313,       612,
   36.3616,       570,
    36.392,       542,
   36.4223,       508,
   36.4526,       484,
    36.483,       487,
   36.5133,       507,
   36.5436,       468,
   36.5739,       495,
   36.6043,       471,
   36.6346,       464,
   36.6649,       462,
   36.6953,       443,
   36.7256,       459,
   36.7559,       446,
   36.7862,       444,
   36.8166,       473,
   36.8469,       486,
   36.8772,       479,
   36.9075,       480,
   36.9379,       477,
   36.9682,       511,
   36.9985,       524,
   37.0289,       533,
   37.0592,       518,
   37.0895,       523,
   37.1198,       490,
   37.1502,       498,
   37.1805,       531,
   37.2108,       473,
   37.2412,       495,
   37.2715,       474,
   37.3018,       495,
   37.3321,       501,
   37.3625,       471,
   37.3928,       478,
   37.4231,       486,
   37.4535,       468,
   37.4838,       458,
   37.5141,       460,
   37.5444,       453,
   37.5748,       530,
   37.6051,       600,
   37.6354,       603,
   37.6658,       557,
   37.6961,       550,
   37.7264,       523,
   37.7567,       456,
   37.7871,       472,
   37.8174,       445,
   37.8477,       439,
    37.878,       446,
   37.9084,       433,
   37.9387,       449,
    37.969,       466,
   37.9994,       457,
   38.0297,       494,
     38.06,       489,
   38.0903,       565,
   38.1207,       567,
    38.151,       574,
   38.1813,       615,
   38.2117,       617,
    38.242,       608,
   38.2723,       557,
   38.3026,       596,
    38.333,       587,
   38.3633,       591,
   38.3936,       597,
    38.424,       595,
   38.4543,       674,
   38.4846,       711,
   38.5149,       817,
   38.5453,      1073,
   38.5756,      1540,
   38.6059,      1769,
   38.6363,      1728,
   38.6666,      1529,
   38.6969,      1445,
   38.7272,      1130,
   38.7576,       819,
   38.7879,       687,
   38.8182,       629,
   38.8485,       640,
   38.8789,       549,
   38.9092,       548,
   38.9395,       560,
   38.9699,       539,
   39.0002,       521,
   39.0305,       483,
   39.0608,       508,
   39.0912,       475,
   39.1215,       429,
   39.1518,       450,
   39.1822,       492,
   39.2125,       422,
   39.2428,       410,
   39.2731,       419,
   39.3035,       436,
   39.3338,       372,
   39.3641,       428,
   39.3945,       416,
   39.4248,       389,
   39.4551,       432,
   39.4854,       409,
   39.5158,       393,
   39.5461,       390,
   39.5764,       369,
   39.6068,       400,
   39.6371,       401,
   39.6674,       400,
   39.6977,       397,
   39.7281,       401,
   39.7584,       423,
   39.7887,       351,
    39.819,       340,
   39.8494,       404,
   39.8797,       410,
     39.91,       437,
   39.9404,       433,
   39.9707,       377,
    40.001,       395,
   40.0313,       437,
   40.0617,       433,
    40.092,       400,
   40.1223,       417,
   40.1527,       402,
    40.183,       448,
   40.2133,       414,
   40.2436,       437,
    40.274,       419,
   40.3043,       426,
   40.3346,       430,
    40.365,       445,
   40.3953,       411,
   40.4256,       433,
   40.4559,       475,
   40.4863,       454,
   40.5166,       479,
   40.5469,       433,
   40.5773,       472,
   40.6076,       438,
   40.6379,       423,
   40.6682,       406,
   40.6986,       467,
   40.7289,       457,
   40.7592,       441,
   40.7895,       441,
   40.8199,       440,
   40.8502,       421,
   40.8805,       417,
   40.9109,       387,
   40.9412,       431,
   40.9715,       434,
   41.0018,       439,
   41.0322,       434,
   41.0625,       417,
   41.0928,       444,
   41.1232,       440,
   41.1535,       444,
   41.1838,       410,
   41.2141,       450,
   41.2445,       410,
   41.2748,       436,
   41.3051,       410,
   41.3355,       416,
   41.3658,       414,
   41.3961,       406,
   41.4264,       411,
   41.4568,       401,
   41.4871,       429,
   41.5174,       420,
   41.5478,       437,
   41.5781,       424,
   41.6084,       421,
   41.6387,       440,
   41.6691,       443,
   41.6994,       446,
   41.7297,       467,
   41.7601,       463,
   41.7904,       437,
   41.8207,       490,
    41.851,       457,
   41.8814,       519,
   41.9117,       535,
    41.942,       556,
   41.9723,       599,
   42.0027,       644,
    42.033,       710,
   42.0633,       882,
   42.0937,      1095,
    42.124,      1184,
   42.1543,      1184,
   42.1846,      1198,
    42.215,      1183,
   42.2453,      1076,
   42.2756,      1068,
    42.306,      1019,
   42.3363,       927,
   42.3666,       928,
   42.3969,       921,
   42.4273,       872,
   42.4576,       956,
   42.4879,       874,
   42.5183,       893,
   42.5486,       852,
   42.5789,       869,
   42.6092,       789,
   42.6396,       757,
   42.6699,       722,
   42.7002,       669,
   42.7306,       586,
   42.7609,       565,
   42.7912,       532,
   42.8215,       519,
   42.8519,       515,
   42.8822,       515,
   42.9125,       514,
   42.9428,       494,
   42.9732,       446,
   43.0035,       484,
   43.0338,       469,
   43.0642,       474,
   43.0945,       482,
   43.1248,       460,
   43.1551,       473,
   43.1855,       440,
   43.2158,       471,
   43.2461,       488,
   43.2765,       460,
   43.3068,       477,
   43.3371,       511,
   43.3674,       536,
   43.3978,       503,
   43.4281,       556,
   43.4584,       624,
   43.4888,       686,
   43.5191,       669,
   43.5494,       666,
   43.5797,       623,
   43.6101,       625,
   43.6404,       627,
   43.6707,       550,
   43.7011,       525,
   43.7314,       482,
   43.7617,       470,
    43.792,       478,
   43.8224,       475,
   43.8527,       439,
    43.883,       453,
   43.9133,       439,
   43.9437,       460,
    43.974,       485,
   44.0043,       500,
   44.0347,       494,
    44.065,       536,
   44.0953,       542,
   44.1256,       679,
    44.156,       775,
   44.1863,       966,
   44.2166,      1307,
    44.247,      1341,
   44.2773,      1199,
   44.3076,      1086,
   44.3379,      1054,
   44.3683,       832,
   44.3986,       652,
   44.4289,       638,
   44.4593,       502,
   44.4896,       515,
   44.5199,       494,
   44.5502,       478,
   44.5806,       513,
   44.6109,       485,
   44.6412,       482,
   44.6716,       509,
   44.7019,       549,
   44.7322,       470,
   44.7625,       575,
   44.7929,       608,
   44.8232,       758,
   44.8535,       852,
   44.8838,       992,
   44.9142,       875,
   44.9445,       885,
   44.9748,       816,
   45.0052,       863,
   45.0355,       826,
   45.0658,       889,
   45.0961,       891,
   45.1265,       800,
   45.1568,       744,
   45.1871,       720,
   45.2175,       657,
   45.2478,       579,
   45.2781,       516,
   45.3084,       441,
   45.3388,       427,
   45.3691,       475,
   45.3994,       386,
   45.4298,       397,
   45.4601,       407,
   45.4904,       410,
   45.5207,       397,
   45.5511,       377,
   45.5814,       377,
   45.6117,       398,
   45.6421,       376,
   45.6724,       363,
   45.7027,       388,
    45.733,       385,
   45.7634,       342,
   45.7937,       363,
    45.824,       383,
   45.8543,       387,
   45.8847,       362,
    45.915,       384,
   45.9453,       391,
   45.9757,       354,
    46.006,       384,
   46.0363,       375,
   46.0666,       374,
    46.097,       431,
   46.1273,       440,
   46.1576,       498,
    46.188,       473,
   46.2183,       507,
   46.2486,       436,
   46.2789,       465,
   46.3093,       471,
   46.3396,       493,
   46.3699,       463,
   46.4003,       541,
   46.4306,       608,
   46.4609,       620,
   46.4912,       683,
   46.5216,       733,
   46.5519,       815,
   46.5822,       935,
   46.6126,       822,
   46.6429,       890,
   46.6732,       840,
   46.7035,       866,
   46.7339,       848,
   46.7642,       746,
   46.7945,       766,
   46.8249,       728,
   46.8552,       641,
   46.8855,       631,
   46.9158,       626,
   46.9462,       565,
   46.9765,       568,
   47.0068,       592,
   47.0371,       470,
   47.0675,       500,
   47.0978,       461,
   47.1281,       467,
   47.1585,       462,
   47.1888,       478,
   47.2191,       440,
   47.2494,       430,
   47.2798,       414,
   47.3101,       409,
   47.3404,       388,
   47.3708,       416,
   47.4011,       414,
   47.4314,       395,
   47.4617,       416,
   47.4921,       408,
   47.5224,       413,
   47.5527,       437,
   47.5831,       392,
   47.6134,       435,
   47.6437,       382,
    47.674,       410,
   47.7044,       418,
   47.7347,       428,
    47.765,       429,
   47.7954,       461,
   47.8257,       435,
    47.856,       450,
   47.8863,       409,
   47.9167,       420,
    47.947,       460,
   47.9773,       435,
   48.0076,       453,
    48.038,       488,
   48.0683,       470,
   48.0986,       457,
    48.129,       571,
   48.1593,       603,
   48.1896,       585,
   48.2199,       560,
   48.2503,       561,
   48.2806,       529,
   48.3109,       521,
   48.3413,       507,
   48.3716,       453,
   48.4019,       380,
   48.4322,       408,
   48.4626,       380,
   48.4929,       399,
   48.5232,       358,
   48.5536,       378,
   48.5839,       346,
   48.6142,       358,
   48.6445,       355,
   48.6749,       365,
   48.7052,       375,
   48.7355,       405,
   48.7659,       365,
   48.7962,       356,
   48.8265,       352,
   48.8568,       382,
   48.8872,       365,
   48.9175,       336,
   48.9478,       313,
   48.9781,       323,
   49.0085,       342,
   49.0388,       366,
   49.0691,       364,
   49.0995,       299,
   49.1298,       346,
   49.1601,       383,
   49.1904,       316,
   49.2208,       336,
   49.2511,       309,
   49.2814,       330,
   49.3118,       345,
   49.3421,       327,
   49.3724,       349,
   49.4027,       328,
   49.4331,       310,
   49.4634,       322,
   49.4937,       308,
   49.5241,       351,
   49.5544,       362,
   49.5847,       357,
    49.615,       370,
   49.6454,       374,
   49.6757,       331,
    49.706,       352,
   49.7364,       335,
   49.7667,       342,
    49.797,       355,
   49.8273,       331,
   49.8577,       357,
    49.888,       326,
   49.9183,       387,
   49.9486,       390,
    49.979,       388,
   50.0093,       367,
   50.0396,       390,
     50.07,       421,
   50.1003,       444,
   50.1306,       435,
   50.1609,       572,
   50.1913,       638,
   50.2216,       755,
   50.2519,       737,
   50.2823,       658,
   50.3126,       624,
   50.3429,       615,
   50.3732,       553,
   50.4036,       491,
   50.4339,       428,
   50.4642,       412,
   50.4946,       397,
   50.5249,       421,
   50.5552,       434,
   50.5855,       418,
   50.6159,       446,
   50.6462,       438,
   50.6765,       435,
   50.7069,       431,
   50.7372,       470,
   50.7675,       445,
   50.7978,       447,
   50.8282,       456,
   50.8585,       459,
   50.8888,       500,
   50.9191,       527,
   50.9495,       527,
   50.9798,       580,
   51.0101,       602,
   51.0405,       687,
   51.0708,       702,
   51.1011,       724,
   51.1314,       731,
   51.1618,       761,
   51.1921,       742,
   51.2224,       735,
   51.2528,       693,
   51.2831,       683,
   51.3134,       646,
   51.3437,       628,
   51.3741,       568,
   51.4044,       587,
   51.4347,       524,
   51.4651,       492,
   51.4954,       512,
   51.5257,       461,
    51.556,       437,
   51.5864,       419,
   51.6167,       427,
    51.647,       441,
   51.6774,       421,
   51.7077,       399,
    51.738,       432,
   51.7683,       410,
   51.7987,       416,
    51.829,       393,
   51.8593,       380,
   51.8897,       350,
     51.92,       393,
   51.9503,       401,
   51.9806,       384,
    52.011,       372,
   52.0413,       365,
   52.0716,       365,
   52.1019,       391,
   52.1323,       358,
   52.1626,       392,
   52.1929,       403,
   52.2233,       375,
   52.2536,       395,
   52.2839,       334,
   52.3142,       368,
   52.3446,       363,
   52.3749,       375,
   52.4052,       441,
   52.4356,       384,
   52.4659,       371,
   52.4962,       371,
   52.5265,       366,
   52.5569,       393,
   52.5872,       369,
   52.6175,       375,
   52.6479,       406,
   52.6782,       383,
   52.7085,       351,
   52.7388,       352,
   52.7692,       359,
   52.7995,       354,
   52.8298,       350,
   52.8602,       369,
   52.8905,       362,
   52.9208,       328,
   52.9511,       367,
   52.9815,       369,
   53.0118,       320,
   53.0421,       365,
   53.0724,       364,
   53.1028,       372,
   53.1331,       380,
   53.1634,       396,
   53.1938,       397,
   53.2241,       401,
   53.2544,       435,
   53.2847,       464,
   53.3151,       436,
   53.3454,       452,
   53.3757,       446,
   53.4061,       443,
   53.4364,       454,
   53.4667,       441,
    53.497,       517,
   53.5274,       507,
   53.5577,       525,
    53.588,       556,
   53.6184,       655,
   53.6487,       789,
    53.679,       998,
   53.7093,      1337,
   53.7397,      1608,
     53.77,      1527,
   53.8003,      1290,
   53.8307,      1206,
    53.861,      1231,
   53.8913,      1002,
   53.9216,       833,
    53.952,       660,
   53.9823,       554,
   54.0126,       533,
   54.0429,       467,
   54.0733,       467,
   54.1036,       426,
   54.1339,       407,
   54.1643,       416,
   54.1946,       407,
   54.2249,       405,
   54.2552,       348,
   54.2856,       346,
   54.3159,       379,
   54.3462,       341,
   54.3766,       387,
   54.4069,       382,
   54.4372,       397,
   54.4675,       373,
   54.4979,       379,
   54.5282,       366,
   54.5585,       367,
   54.5889,       360,
   54.6192,       323,
   54.6495,       358,
   54.6798,       350,
   54.7102,       378,
   54.7405,       362,
   54.7708,       346,
   54.8012,       329,
   54.8315,       336,
   54.8618,       325,
   54.8921,       342,
   54.9225,       351,
   54.9528,       321,
   54.9831,       355,
   55.0134,       326,
   55.0438,       344,
   55.0741,       354,
   55.1044,       350,
   55.1348,       351,
   55.1651,       340,
   55.1954,       344,
   55.2257,       360,
   55.2561,       371,
   55.2864,       351,
   55.3167,       379,
   55.3471,       370,
   55.3774,       412,
   55.4077,       361,
    55.438,       368,
   55.4684,       375,
   55.4987,       411,
    55.529,       357,
   55.5594,       378,
   55.5897,       400,
     55.62,       385,
   55.6503,       408,
   55.6807,       419,
    55.711,       451,
   55.7413,       469,
   55.7717,       515,
    55.802,       545,
   55.8323,       525,
   55.8626,       470,
    55.893,       538,
   55.9233,       525,
   55.9536,       521,
   55.9839,       577,
   56.0143,       545,
   56.0446,       535,
   56.0749,       575,
   56.1053,       587,
   56.1356,       595,
   56.1659,       627,
   56.1962,       624,
   56.2266,       674,
   56.2569,       698,
   56.2872,       719,
   56.3176,       707,
   56.3479,       710,
   56.3782,       713,
   56.4085,       753,
   56.4389,       750,
   56.4692,       731,
   56.4995,       724,
   56.5299,       820,
   56.5602,       746,
   56.5905,       795,
   56.6208,       918,
   56.6512,       932,
   56.6815,      1046,
   56.7118,       978,
   56.7422,      1051,
   56.7725,       973,
   56.8028,      1044,
   56.8331,      1024,
   56.8635,      1000,
   56.8938,       873,
   56.9241,       812,
   56.9544,       782,
   56.9848,       737,
   57.0151,       706,
   57.0454,       630,
   57.0758,       608,
   57.1061,       650,
   57.1364,       567,
   57.1667,       563,
   57.1971,       544,
   57.2274,       506,
   57.2577,       529,
   57.2881,       523,
   57.3184,       563,
   57.3487,       546,
    57.379,       579,
   57.4094,       633,
   57.4397,       614,
     57.47,       624,
   57.5004,       674,
   57.5307,       676,
    57.561,       654,
   57.5913,       649,
   57.6217,       699,
    57.652,       703,
   57.6823,       721,
   57.7127,       690,
    57.743,       654,
   57.7733,       673,
   57.8036,       715,
    57.834,       630,
   57.8643,       653,
   57.8946,       585,
    57.925,       563,
   57.9553,       591,
   57.9856,       545,
   58.0159,       532,
   58.0463,       486,
   58.0766,       490,
   58.1069,       522,
   58.1372,       429,
   58.1676,       445,
   58.1979,       433,
   58.2282,       475,
   58.2586,       448,
   58.2889,       447,
   58.3192,       422,
   58.3495,       443,
   58.3799,       453,
   58.4102,       455,
   58.4405,       444,
   58.4709,       418,
   58.5012,       443,
   58.5315,       475,
   58.5618,       411,
   58.5922,       421,
   58.6225,       441,
   58.6528,       423,
   58.6832,       404,
   58.7135,       402,
   58.7438,       438,
   58.7741,       462,
   58.8045,       472,
   58.8348,       511,
   58.8651,       514,
   58.8955,       526,
   58.9258,       666,
   58.9561,       729,
   58.9864,       805,
   59.0168,       739,
   59.0471,       648,
   59.0774,       647,
   59.1077,       649,
   59.1381,       568,
   59.1684,       572,
   59.1987,       503,
   59.2291,       445,
   59.2594,       480,
   59.2897,       416,
     59.32,       412,
   59.3504,       424,
   59.3807,       382,
    59.411,       370,
   59.4414,       347,
   59.4717,       397,
    59.502,       360,
   59.5323,       388,
   59.5627,       342,
    59.593,       353,
   59.6233,       338,
   59.6537,       381,
    59.684,       356,
   59.7143,       349,
   59.7446,       333,
    59.775,       359,
   59.8053,       308,
   59.8356,       346,
    59.866,       344,
   59.8963,       336,
   59.9266,       336,
   59.9569,       327,
   59.9873,       336,
   60.0176,       343,
   60.0479,       336,
   60.0782,       359,
   60.1086,       299,
   60.1389,       309,
   60.1692,       318,
   60.1996,       325,
   60.2299,       363,
   60.2602,       327,
   60.2905,       282,
   60.3209,       311,
   60.3512,       330,
   60.3815,       310,
   60.4119,       336,
   60.4422,       316,
   60.4725,       322,
   60.5028,       308,
   60.5332,       329,
   60.5635,       331,
   60.5938,       280,
   60.6242,       314,
   60.6545,       295,
   60.6848,       292,
   60.7151,       302,
   60.7455,       330,
   60.7758,       333,
   60.8061,       291,
   60.8365,       306,
   60.8668,       290,
   60.8971,       324,
   60.9274,       340,
   60.9578,       295,
   60.9881,       312,
   61.0184,       352,
   61.0487,       358,
   61.0791,       324,
   61.1094,       339,
   61.1397,       334,
   61.1701,       327,
   61.2004,       361,
   61.2307,       337,
    61.261,       326,
   61.2914,       368,
   61.3217,       356,
    61.352,       331,
   61.3824,       320,
   61.4127,       329,
    61.443,       341,
   61.4733,       387,
   61.5037,       369,
    61.534,       380,
   61.5643,       502,
   61.5947,       589,
    61.625,       670,
   61.6553,       790,
   61.6856,       723,
    61.716,       602,
   61.7463,       567,
   61.7766,       614,
    61.807,       579,
   61.8373,       490,
   61.8676,       466,
   61.8979,       437,
   61.9283,       387,
   61.9586,       361,
   61.9889,       378,
   62.0192,       385,
   62.0496,       366,
   62.0799,       358,
   62.1102,       351,
   62.1406,       356,
   62.1709,       398,
   62.2012,       408,
   62.2315,       495,
   62.2619,       491,
   62.2922,       518,
   62.3225,       545,
   62.3529,       556,
   62.3832,       529,
   62.4135,       481,
   62.4438,       453,
   62.4742,       446,
   62.5045,       460,
   62.5348,       365,
   62.5652,       350,
   62.5955,       346,
   62.6258,       319,
   62.6561,       328,
   62.6865,       289,
   62.7168,       301,
   62.7471,       316,
   62.7775,       310,
   62.8078,       303,
   62.8381,       282,
   62.8684,       288,
   62.8988,       314,
   62.9291,       290,
   62.9594,       262,
   62.9898,       290,
   63.0201,       283,
   63.0504,       305,
   63.0807,       256,
   63.1111,       284,
   63.1414,       286,
   63.1717,       284,
    63.202,       272,
   63.2324,       276,
   63.2627,       283,
    63.293,       272,
   63.3234,       265,
   63.3537,       291,
    63.384,       274,
   63.4143,       292,
   63.4447,       260,
    63.475,       291,
   63.5053,       286,
   63.5357,       309,
    63.566,       279,
   63.5963,       272,
   63.6266,       306,
    63.657,       306,
   63.6873,       295,
   63.7176,       305,
    63.748,       284,
   63.7783,       291,
   63.8086,       264,
   63.8389,       295,
   63.8693,       288,
   63.8996,       275,
   63.9299,       258,
   63.9603,       244,
   63.9906,       248,
   64.0209,       274,
   64.0512,       263,
   64.0816,       268,
   64.1119,       278,
   64.1422,       264,
   64.1725,       260,
   64.2029,       271,
   64.2332,       269,
   64.2635,       255,
   64.2939,       285,
   64.3242,       276,
   64.3545,       228,
   64.3848,       292,
   64.4152,       294,
   64.4455,       260,
   64.4758,       250,
   64.5062,       261,
   64.5365,       275,
   64.5668,       245,
   64.5971,       272,
   64.6275,       254,
   64.6578,       270,
   64.6881,       268,
   64.7185,       264,
   64.7488,       254,
   64.7791,       263,
   64.8094,       263,
   64.8398,       253,
   64.8701,       285,
   64.9004,       273,
   64.9308,       282,
   64.9611,       265,
   64.9914,       280,
   65.0217,       229,
   65.0521,       272,
   65.0824,       254,
   65.1127,       256,
    65.143,       261,
   65.1734,       252,
   65.2037,       261,
    65.234,       251,
   65.2644,       277,
   65.2947,       254,
    65.325,       242,
   65.3553,       271,
   65.3857,       242,
    65.416,       241,
   65.4463,       279,
   65.4767,       246,
    65.507,       278,
   65.5373,       258,
   65.5676,       272,
    65.598,       267,
   65.6283,       238,
   65.6586,       249,
    65.689,       203,
   65.7193,       251,
   65.7496,       254,
   65.7799,       246,
   65.8103,       233,
   65.8406,       272,
   65.8709,       272,
   65.9013,       278,
   65.9316,       276,
   65.9619,       240,
   65.9922,       239,
   66.0226,       287,
   66.0529,       247,
   66.0832,       270,
   66.1135,       276,
   66.1439,       290,
   66.1742,       312,
   66.2045,       287,
   66.2349,       301,
   66.2652,       278,
   66.2955,       280,
   66.3258,       255,
   66.3562,       262,
   66.3865,       280,
   66.4168,       269,
   66.4472,       266,
   66.4775,       234,
   66.5078,       264,
   66.5381,       247,
   66.5685,       274,
   66.5988,       275,
   66.6291,       226,
   66.6595,       245,
   66.6898,       249,
   66.7201,       278,
   66.7504,       243,
   66.7808,       253,
   66.8111,       260,
   66.8414,       269,
   66.8718,       273,
   66.9021,       249,
   66.9324,       268,
   66.9627,       284,
   66.9931,       285,
   67.0234,       258,
   67.0537,       300,
    67.084,       270,
   67.1144,       281,
   67.1447,       260,
    67.175,       270,
   67.2054,       276,
   67.2357,       264,
    67.266,       285,
   67.2963,       290,
   67.3267,       284,
    67.357,       255,
   67.3873,       285,
   67.4177,       254,
    67.448,       265,
   67.4783,       303,
   67.5086,       315,
    67.539,       311,
   67.5693,       287,
   67.5996,       251,
     67.63,       288,
   67.6603,       292,
   67.6906,       288,
   67.7209,       303,
   67.7513,       278,
   67.7816,       304,
   67.8119,       301,
   67.8423,       321,
   67.8726,       262,
   67.9029,       271,
   67.9332,       276,
   67.9636,       282,
   67.9939,       303,
   68.0242,       277,
   68.0546,       257,
   68.0849,       297,
   68.1152,       249,
   68.1455,       251,
   68.1759,       264,
   68.2062,       277,
   68.2365,       294,
   68.2668,       301,
   68.2972,       295,
   68.3275,       314,
   68.3578,       310,
   68.3882,       319,
   68.4185,       320,
   68.4488,       301,
   68.4791,       331,
   68.5095,       326,
   68.5398,       341,
   68.5701,       365,
   68.6005,       381,
   68.6308,       364,
   68.6611,       354,
   68.6914,       335,
   68.7218,       356,
   68.7521,       365,
   68.7824,       358,
   68.8128,       311,
   68.8431,       326,
   68.8734,       340,
   68.9037,       293,
   68.9341,       299,
   68.9644,       299,
   68.9947,       332,
   69.0251,       322,
   69.0554,       310,
   69.0857,       286,
    69.116,       257,
   69.1464,       277,
   69.1767,       289,
    69.207,       293,
   69.2373,       274,
   69.2677,       300,
    69.298,       297,
   69.3283,       244,
   69.3587,       274,
    69.389,       273,
   69.4193,       267,
   69.4496,       272,
     69.48,       278,
   69.5103,       264,
   69.5406,       263,
    69.571,       273,
   69.6013,       221,
   69.6316,       278,
   69.6619,       295,
   69.6923,       279,
   69.7226,       272,
   69.7529,       260,
   69.7833,       262,
   69.8136,       239,
   69.8439,       299,
   69.8742,       298,
   69.9046,       250,
   69.9349,       313,
   69.9652,       328,
   69.9956,       336,
