;RAW4.00
[RawHeader]
Date=04/21/2019
EstimatedTotalTime=2311.97
FurtherDQLReading=0
HardwareIndicator=65519
MeasuredTotalTime=2311.97
MeasurementFlag=1
NumberOfMeasuredRanges=1
NumberOfRanges=1
Time=12:19:46

[VarInfo]
Type=USER
Flags=0
Value=Bruker Service

[VarInfo]
Type=SAMPLEID
Flags=0
Value=Commander Sample ID

[VarInfo]
Type=COMMENT
Flags=0
Value=

[VarInfo]
Type=UTF
Flags=0
Value=

[VarInfo]
Type=CREATOR
Flags=0
Value=BrmlToV4Converter

[VarInfo]
Type=CREATOR_VERSION
Flags=0
Value=7.3.0.0

[HardwareConfiguration]
AbsorptionFactor=9999
ActivateAbsorber=0
Alpha1=1.78897
Alpha2=1.79285
AlphaAverage=1.79026
AlphaRatio=0.5
Analyzer=0
Anode=Co
AntiScatteringSlit=9999
BeamOpticsFlags=0
Beta=1.62079
BetaRelativeIntensity=0
DeactivateAbsorber=0
DetectorSlit=9999
DivergenceSlit=1
GoniometerControl=0
GoniometerDiameter=282
GoniometerModel=256
GoniometerStage=7
Monochromator=0
NearSampleSlit=9999
PrimarySollerSlit=9999
SampleChanger=0
SecondSollerSlit=9999
SynchronousAxis=0
ThinFilmAttachment=9999
WaveUnit=A

[RangeHeader]
ActuallyUsedLambda=1.79026
AdditionalDetectorMask=257
DataRecordLength=4
DelayTime=0
DisplayPlaneNumber=0
EstimatedScanTime=2312
ExtraParametersMask=0
GeneratorCurrent=10
GeneratorVoltage=30
Increment=0.0303281
Increment3=0
NumberOfCompletedData=2144
NumberOfCounts=1
NumberOfDetectors=0
NumberOfDrives=2
NumberOfEncoderDrives=0
NumberOfMeasuredData=2144
NumberOfVaryingParameters=0
RangeStartTime=0
RotationSpeed=1
ScanMode=1
ScanType=Locked Coupled
SimulatedMeasConditions=0
SlitChangerIn=0
SmootingWidth=0
Start=5.00234
Steps=2144
SynchronousRotation=0
Time=165

[VarInfo]
Type=PSD_DISCRIM
Flags=0
Value=0.11;0.25

[PSD]
ActualTwoTheta=9999
FirstUsedChannel=0
FixedPSD=0
PSDOpening=5.00414
PSDType=5

[Drive]
DriveFlags=1
DriveName=2Theta
DriveNumber=2
DriveOffset=0
OffsetIndex=0
OscillationAmplitude=0
OscillationSpeed=0
StartPosition=5.00234

[Drive]
DriveFlags=1
DriveName=Theta
DriveNumber=1
DriveOffset=0
OffsetIndex=0
OscillationAmplitude=0
OscillationSpeed=0
StartPosition=2.50117

[Data]
     Angle,       PSD,
   5.00234,      8965,
   5.03267,      8961,
     5.063,      8762,
   5.09333,      8343,
   5.12365,      8600,
   5.15398,      8374,
   5.18431,      8276,
   5.21464,      8218,
   5.24497,      8082,
   5.27529,      7629,
   5.30562,      7780,
   5.33595,      7668,
   5.36628,      7498,
   5.39661,      7553,
   5.42694,      7260,
   5.45726,      7195,
   5.48759,      6884,
   5.51792,      6635,
   5.54825,      6534,
   5.57858,      6316,
    5.6089,      6116,
   5.63923,      5975,
   5.66956,      6002,
   5.69989,      5877,
   5.73022,      5699,
   5.76055,      5679,
   5.79087,      5624,
    5.8212,      5480,
   5.85153,      5558,
   5.88186,      5393,
   5.91219,      5204,
   5.94251,      5073,
   5.97284,      5115,
   6.00317,      4986,
    6.0335,      4928,
   6.06383,      4801,
   6.09415,      4909,
   6.12448,      4712,
   6.15481,      4539,
   6.18514,      4614,
   6.21547,      4581,
    6.2458,      4488,
   6.27612,      4394,
   6.30645,      4416,
   6.33678,      4335,
   6.36711,      4291,
   6.39744,      4233,
   6.42776,      4304,
   6.45809,      4128,
   6.48842,      4090,
   6.51875,      4138,
   6.54908,      3963,
    6.5794,      3911,
   6.60973,      3821,
   6.64006,      3802,
   6.67039,      3694,
   6.70072,      3654,
   6.73105,      3547,
   6.76137,      3528,
    6.7917,      3564,
   6.82203,      3618,
   6.85236,      3440,
   6.88269,      3380,
   6.91301,      3478,
   6.94334,      3273,
   6.97367,      3245,
     7.004,      3255,
   7.03433,      3220,
   7.06466,      3095,
   7.09498,      3009,
   7.12531,      3155,
   7.15564,      3057,
   7.18597,      2976,
    7.2163,      2961,
   7.24662,      2876,
   7.27695,      2946,
   7.30728,      2976,
   7.33761,      2838,
   7.36794,      2751,
   7.39826,      2826,
   7.42859,      2693,
   7.45892,      2719,
   7.48925,      2753,
   7.51958,      2609,
   7.54991,      2639,
   7.58023,      2639,
   7.61056,      2577,
   7.64089,      2591,
   7.67122,      2475,
   7.70155,      2448,
   7.73187,      2376,
    7.7622,      2376,
   7.79253,      2399,
   7.82286,      2376,
   7.85319,      2317,
   7.88352,      2273,
   7.91384,      2251,
   7.94417,      2306,
    7.9745,      2184,
   8.00483,      2163,
   8.03516,      2198,
   8.06548,      2063,
   8.09581,      2075,
   8.12614,      2107,
   8.15647,      2082,
    8.1868,      2020,
   8.21712,      1933,
   8.24745,      1982,
   8.27778,      1984,
   8.30811,      1972,
   8.33844,      1883,
   8.36877,      1876,
   8.39909,      1861,
   8.42942,      1858,
   8.45975,      1909,
   8.49008,      1831,
   8.52041,      1886,
   8.55073,      1764,
   8.58106,      1786,
   8.61139,      1695,
   8.64172,      1718,
   8.67205,      1619,
   8.70237,      1758,
    8.7327,      1596,
   8.76303,      1620,
   8.79336,      1672,
   8.82369,      1665,
   8.85402,      1631,
   8.88434,      1599,
   8.91467,      1520,
     8.945,      1549,
   8.97533,      1562,
   9.00566,      1584,
   9.03598,      1511,
   9.06631,      1538,
   9.09664,      1505,
   9.12697,      1508,
    9.1573,      1485,
   9.18763,      1455,
   9.21795,      1389,
   9.24828,      1432,
   9.27861,      1410,
   9.30894,      1391,
   9.33927,      1331,
   9.36959,      1395,
   9.39992,      1380,
   9.43025,      1369,
   9.46058,      1353,
   9.49091,      1327,
   9.52123,      1336,
   9.55156,      1284,
   9.58189,      1369,
   9.61222,      1301,
   9.64255,      1334,
   9.67288,      1343,
    9.7032,      1310,
   9.73353,      1296,
   9.76386,      1258,
   9.79419,      1278,
   9.82452,      1295,
   9.85484,      1295,
   9.88517,      1293,
    9.9155,      1253,
   9.94583,      1244,
   9.97616,      1270,
   10.0065,      1296,
   10.0368,      1211,
   10.0671,      1268,
   10.0975,      1157,
   10.1278,      1175,
   10.1581,      1202,
   10.1885,      1150,
   10.2188,      1201,
   10.2491,      1217,
   10.2794,      1166,
   10.3098,      1137,
   10.3401,      1095,
   10.3704,      1129,
   10.4008,      1145,
   10.4311,      1144,
   10.4614,      1182,
   10.4917,      1138,
   10.5221,      1142,
   10.5524,      1089,
   10.5827,      1098,
    10.613,      1181,
   10.6434,      1091,
   10.6737,      1035,
    10.704,      1106,
   10.7344,      1081,
   10.7647,      1062,
    10.795,      1036,
   10.8253,      1108,
   10.8557,      1077,
    10.886,      1088,
   10.9163,      1129,
   10.9467,      1067,
    10.977,      1054,
   11.0073,      1023,
   11.0376,      1018,
    11.068,      1074,
   11.0983,       999,
   11.1286,      1057,
    11.159,      1072,
   11.1893,      1055,
   11.2196,      1017,
   11.2499,      1023,
   11.2803,      1009,
   11.3106,      1031,
   11.3409,       974,
   11.3713,       975,
   11.4016,       961,
   11.4319,       951,
   11.4622,      1021,
   11.4926,       971,
   11.5229,       936,
   11.5532,       999,
   11.5835,      1007,
   11.6139,       977,
   11.6442,      1037,
   11.6745,       950,
   11.7049,       976,
   11.7352,       969,
   11.7655,       952,
   11.7958,       972,
   11.8262,       981,
   11.8565,       939,
   11.8868,       983,
   11.9172,       890,
   11.9475,       927,
   11.9778,       918,
   12.0081,       945,
   12.0385,       947,
   12.0688,       920,
   12.0991,       935,
   12.1295,       937,
   12.1598,       975,
   12.1901,       912,
   12.2204,       921,
   12.2508,       934,
   12.2811,       944,
   12.3114,       903,
   12.3418,       918,
   12.3721,       897,
   12.4024,       875,
   12.4327,       877,
   12.4631,       907,
   12.4934,       832,
   12.5237,       939,
    12.554,       874,
   12.5844,       852,
   12.6147,       790,
    12.645,       871,
   12.6754,       883,
   12.7057,       838,
    12.736,       811,
   12.7663,       821,
   12.7967,       838,
    12.827,       847,
   12.8573,       854,
   12.8877,       782,
    12.918,       844,
   12.9483,       817,
   12.9786,       842,
    13.009,       876,
   13.0393,       836,
   13.0696,       868,
      13.1,       850,
   13.1303,       830,
   13.1606,       817,
   13.1909,       832,
   13.2213,       782,
   13.2516,       834,
   13.2819,       850,
   13.3123,       848,
   13.3426,       837,
   13.3729,       836,
   13.4032,       818,
   13.4336,       872,
   13.4639,       883,
   13.4942,       896,
   13.5245,       885,
   13.5549,       828,
   13.5852,       854,
   13.6155,       831,
   13.6459,       803,
   13.6762,       827,
   13.7065,       796,
   13.7368,       831,
   13.7672,       755,
   13.7975,       800,
   13.8278,       795,
   13.8582,       804,
   13.8885,       823,
   13.9188,       835,
   13.9491,       744,
   13.9795,       877,
   14.0098,       759,
   14.0401,       778,
   14.0705,       758,
   14.1008,       787,
   14.1311,       758,
   14.1614,       765,
   14.1918,       770,
   14.2221,       773,
   14.2524,       770,
   14.2828,       795,
   14.3131,       771,
   14.3434,       771,
   14.3737,       808,
   14.4041,       729,
   14.4344,       749,
   14.4647,       744,
   14.4951,       727,
   14.5254,       674,
   14.5557,       748,
    14.586,       778,
   14.6164,       734,
   14.6467,       739,
    14.677,       740,
   14.7073,       717,
   14.7377,       727,
    14.768,       683,
   14.7983,       700,
   14.8287,       705,
    14.859,       728,
   14.8893,       754,
   14.9196,       699,
     14.95,       681,
   14.9803,       665,
   15.0106,       730,
    15.041,       714,
   15.0713,       702,
   15.1016,       678,
   15.1319,       716,
   15.1623,       728,
   15.1926,       674,
   15.2229,       688,
   15.2533,       700,
   15.2836,       689,
   15.3139,       707,
   15.3442,       722,
   15.3746,       691,
   15.4049,       727,
   15.4352,       693,
   15.4656,       666,
   15.4959,       696,
   15.5262,       711,
   15.5565,       727,
   15.5869,       675,
   15.6172,       672,
   15.6475,       674,
   15.6778,       626,
   15.7082,       677,
   15.7385,       701,
   15.7688,       683,
   15.7992,       627,
   15.8295,       714,
   15.8598,       662,
   15.8901,       663,
   15.9205,       650,
   15.9508,       638,
   15.9811,       665,
   16.0115,       679,
   16.0418,       656,
   16.0721,       657,
   16.1024,       652,
   16.1328,       656,
   16.1631,       602,
   16.1934,       629,
   16.2238,       596,
   16.2541,       657,
   16.2844,       672,
   16.3147,       635,
   16.3451,       657,
   16.3754,       623,
   16.4057,       596,
   16.4361,       594,
   16.4664,       560,
   16.4967,       623,
    16.527,       611,
   16.5574,       685,
   16.5877,       617,
    16.618,       637,
   16.6483,       711,
   16.6787,       658,
    16.709,       652,
   16.7393,       639,
   16.7697,       623,
      16.8,       627,
   16.8303,       632,
   16.8606,       610,
    16.891,       640,
   16.9213,       569,
   16.9516,       595,
    16.982,       596,
   17.0123,       608,
   17.0426,       577,
   17.0729,       597,
   17.1033,       587,
   17.1336,       566,
   17.1639,       569,
   17.1943,       631,
   17.2246,       601,
   17.2549,       592,
   17.2852,       586,
   17.3156,       590,
   17.3459,       591,
   17.3762,       584,
   17.4066,       547,
   17.4369,       598,
   17.4672,       563,
   17.4975,       525,
   17.5279,       577,
   17.5582,       576,
   17.5885,       590,
   17.6188,       549,
   17.6492,       580,
   17.6795,       577,
   17.7098,       584,
   17.7402,       531,
   17.7705,       522,
   17.8008,       589,
   17.8311,       604,
   17.8615,       623,
   17.8918,       586,
   17.9221,       563,
   17.9525,       570,
   17.9828,       568,
   18.0131,       628,
   18.0434,       558,
   18.0738,       526,
   18.1041,       546,
   18.1344,       564,
   18.1648,       578,
   18.1951,       534,
   18.2254,       578,
   18.2557,       583,
   18.2861,       551,
   18.3164,       569,
   18.3467,       527,
   18.3771,       577,
   18.4074,       581,
   18.4377,       530,
    18.468,       559,
   18.4984,       578,
   18.5287,       505,
    18.559,       530,
   18.5893,       540,
   18.6197,       532,
     18.65,       535,
   18.6803,       582,
   18.7107,       541,
    18.741,       551,
   18.7713,       555,
   18.8016,       512,
    18.832,       500,
   18.8623,       552,
   18.8926,       522,
    18.923,       541,
   18.9533,       530,
   18.9836,       523,
   19.0139,       545,
   19.0443,       526,
   19.0746,       516,
   19.1049,       555,
   19.1353,       505,
   19.1656,       521,
   19.1959,       566,
   19.2262,       539,
   19.2566,       499,
   19.2869,       529,
   19.3172,       525,
   19.3476,       515,
   19.3779,       572,
   19.4082,       527,
   19.4385,       505,
   19.4689,       499,
   19.4992,       523,
   19.5295,       521,
   19.5599,       465,
   19.5902,       472,
   19.6205,       553,
   19.6508,       486,
   19.6812,       455,
   19.7115,       531,
   19.7418,       490,
   19.7721,       486,
   19.8025,       471,
   19.8328,       487,
   19.8631,       487,
   19.8935,       523,
   19.9238,       553,
   19.9541,       506,
   19.9844,       495,
   20.0148,       452,
   20.0451,       515,
   20.0754,       493,
   20.1058,       486,
   20.1361,       466,
   20.1664,       501,
   20.1967,       494,
   20.2271,       492,
   20.2574,       493,
   20.2877,       471,
   20.3181,       492,
   20.3484,       480,
   20.3787,       500,
    20.409,       504,
   20.4394,       494,
   20.4697,       487,
      20.5,       481,
   20.5304,       470,
   20.5607,       512,
    20.591,       526,
   20.6213,       508,
   20.6517,       458,
    20.682,       461,
   20.7123,       512,
   20.7426,       453,
    20.773,       469,
   20.8033,       508,
   20.8336,       466,
    20.864,       462,
   20.8943,       504,
   20.9246,       482,
   20.9549,       496,
   20.9853,       477,
   21.0156,       476,
   21.0459,       483,
   21.0763,       476,
   21.1066,       486,
   21.1369,       485,
   21.1672,       493,
   21.1976,       456,
   21.2279,       528,
   21.2582,       440,
   21.2886,       453,
   21.3189,       440,
   21.3492,       453,
   21.3795,       540,
   21.4099,       458,
   21.4402,       472,
   21.4705,       461,
   21.5009,       455,
   21.5312,       463,
   21.5615,       474,
   21.5918,       500,
   21.6222,       467,
   21.6525,       430,
   21.6828,       464,
   21.7131,       448,
   21.7435,       436,
   21.7738,       434,
   21.8041,       421,
   21.8345,       435,
   21.8648,       464,
   21.8951,       478,
   21.9254,       450,
   21.9558,       429,
   21.9861,       415,
   22.0164,       427,
   22.0468,       437,
   22.0771,       479,
   22.1074,       456,
   22.1377,       435,
   22.1681,       453,
   22.1984,       434,
   22.2287,       414,
   22.2591,       447,
   22.2894,       439,
   22.3197,       410,
     22.35,       457,
   22.3804,       435,
   22.4107,       487,
    22.441,       488,
   22.4714,       468,
   22.5017,       454,
    22.532,       460,
   22.5623,       458,
   22.5927,       444,
    22.623,       439,
   22.6533,       494,
   22.6836,       443,
    22.714,       468,
   22.7443,       455,
   22.7746,       459,
    22.805,       445,
   22.8353,       480,
   22.8656,       449,
   22.8959,       447,
   22.9263,       470,
   22.9566,       450,
   22.9869,       461,
   23.0173,       478,
   23.0476,       510,
   23.0779,       501,
   23.1082,       489,
   23.1386,       481,
   23.1689,       476,
   23.1992,       520,
   23.2296,       486,
   23.2599,       519,
   23.2902,       452,
   23.3205,       498,
   23.3509,       452,
   23.3812,       479,
   23.4115,       473,
   23.4419,       456,
   23.4722,       421,
   23.5025,       465,
   23.5328,       454,
   23.5632,       484,
   23.5935,       475,
   23.6238,       446,
   23.6541,       419,
   23.6845,       457,
   23.7148,       441,
   23.7451,       436,
   23.7755,       435,
   23.8058,       423,
   23.8361,       456,
   23.8664,       451,
   23.8968,       425,
   23.9271,       423,
   23.9574,       396,
   23.9878,       456,
   24.0181,       410,
   24.0484,       449,
   24.0787,       439,
   24.1091,       463,
   24.1394,       406,
   24.1697,       452,
   24.2001,       394,
   24.2304,       479,
   24.2607,       452,
    24.291,       420,
   24.3214,       429,
   24.3517,       419,
    24.382,       426,
   24.4124,       412,
   24.4427,       438,
    24.473,       465,
   24.5033,       459,
   24.5337,       447,
    24.564,       421,
   24.5943,       452,
   24.6246,       438,
    24.655,       402,
   24.6853,       399,
   24.7156,       423,
    24.746,       391,
   24.7763,       405,
   24.8066,       417,
   24.8369,       373,
   24.8673,       414,
   24.8976,       445,
   24.9279,       411,
   24.9583,       410,
   24.9886,       395,
   25.0189,       366,
   25.0492,       409,
   25.0796,       374,
   25.1099,       412,
   25.1402,       430,
   25.1706,       396,
   25.2009,       368,
   25.2312,       357,
   25.2615,       361,
   25.2919,       384,
   25.3222,       389,
   25.3525,       391,
   25.3829,       410,
   25.4132,       361,
   25.4435,       368,
   25.4738,       421,
   25.5042,       356,
   25.5345,       403,
   25.5648,       377,
   25.5952,       401,
   25.6255,       390,
   25.6558,       426,
   25.6861,       379,
   25.7165,       376,
   25.7468,       369,
   25.7771,       369,
   25.8074,       378,
   25.8378,       389,
   25.8681,       403,
   25.8984,       351,
   25.9288,       393,
   25.9591,       376,
   25.9894,       382,
   26.0197,       385,
   26.0501,       354,
   26.0804,       379,
   26.1107,       406,
   26.1411,       383,
   26.1714,       385,
   26.2017,       359,
    26.232,       365,
   26.2624,       355,
   26.2927,       363,
    26.323,       395,
   26.3534,       350,
   26.3837,       355,
    26.414,       369,
   26.4443,       355,
   26.4747,       392,
    26.505,       394,
   26.5353,       377,
   26.5657,       363,
    26.596,       341,
   26.6263,       355,
   26.6566,       358,
    26.687,       361,
   26.7173,       373,
   26.7476,       369,
   26.7779,       403,
   26.8083,       434,
   26.8386,       470,
   26.8689,       507,
   26.8993,       507,
   26.9296,       465,
   26.9599,       443,
   26.9902,       386,
   27.0206,       460,
   27.0509,       453,
   27.0812,       514,
   27.1116,       493,
   27.1419,       496,
   27.1722,       452,
   27.2025,       453,
   27.2329,       418,
   27.2632,       429,
   27.2935,       430,
   27.3239,       430,
   27.3542,       427,
   27.3845,       389,
   27.4148,       387,
   27.4452,       369,
   27.4755,       368,
   27.5058,       351,
   27.5362,       386,
   27.5665,       332,
   27.5968,       399,
   27.6271,       383,
   27.6575,       375,
   27.6878,       360,
   27.7181,       364,
   27.7484,       357,
   27.7788,       336,
   27.8091,       346,
   27.8394,       360,
   27.8698,       344,
   27.9001,       356,
   27.9304,       348,
   27.9607,       377,
   27.9911,       335,
   28.0214,       347,
   28.0517,       362,
   28.0821,       343,
   28.1124,       310,
   28.1427,       333,
    28.173,       340,
   28.2034,       375,
   28.2337,       369,
    28.264,       332,
   28.2944,       329,
   28.3247,       363,
    28.355,       355,
   28.3853,       329,
   28.4157,       344,
    28.446,       344,
   28.4763,       347,
   28.5067,       372,
    28.537,       329,
   28.5673,       332,
   28.5976,       320,
    28.628,       350,
   28.6583,       326,
   28.6886,       304,
   28.7189,       332,
   28.7493,       307,
   28.7796,       353,
   28.8099,       333,
   28.8403,       361,
   28.8706,       357,
   28.9009,       362,
   28.9312,       318,
   28.9616,       333,
   28.9919,       337,
   29.0222,       327,
   29.0526,       348,
   29.0829,       353,
   29.1132,       367,
   29.1435,       338,
   29.1739,       336,
   29.2042,       354,
   29.2345,       331,
   29.2649,       311,
   29.2952,       287,
   29.3255,       342,
   29.3558,       357,
   29.3862,       340,
   29.4165,       355,
   29.4468,       364,
   29.4772,       328,
   29.5075,       374,
   29.5378,       325,
   29.5681,       336,
   29.5985,       333,
   29.6288,       299,
   29.6591,       347,
   29.6894,       349,
   29.7198,       353,
   29.7501,       340,
   29.7804,       311,
   29.8108,       311,
   29.8411,       346,
   29.8714,       326,
   29.9017,       339,
   29.9321,       368,
   29.9624,       299,
   29.9927,       343,
   30.0231,       348,
   30.0534,       358,
   30.0837,       323,
    30.114,       354,
   30.1444,       355,
   30.1747,       354,
    30.205,       365,
   30.2354,       392,
   30.2657,       358,
    30.296,       382,
   30.3263,       394,
   30.3567,       445,
    30.387,       467,
   30.4173,       596,
   30.4477,       798,
    30.478,      1077,
   30.5083,      1335,
   30.5386,      1280,
    30.569,      1097,
   30.5993,       861,
   30.6296,       656,
     30.66,       477,
   30.6903,       443,
   30.7206,       412,
   30.7509,       396,
   30.7813,       403,
   30.8116,       370,
   30.8419,       351,
   30.8722,       348,
   30.9026,       381,
   30.9329,       395,
   30.9632,       385,
   30.9936,       480,
   31.0239,       476,
   31.0542,       443,
   31.0845,       459,
   31.1149,       383,
   31.1452,       408,
   31.1755,       357,
   31.2059,       400,
   31.2362,       347,
   31.2665,       404,
   31.2968,       396,
   31.3272,       393,
   31.3575,       349,
   31.3878,       352,
   31.4182,       368,
   31.4485,       379,
   31.4788,       387,
   31.5091,       408,
   31.5395,       413,
   31.5698,       442,
   31.6001,       503,
   31.6305,       615,
   31.6608,       769,
   31.6911,       815,
   31.7214,       768,
   31.7518,       670,
   31.7821,       567,
   31.8124,       450,
   31.8427,       434,
   31.8731,       362,
   31.9034,       358,
   31.9337,       362,
   31.9641,       357,
   31.9944,       310,
   32.0247,       348,
    32.055,       351,
   32.0854,       327,
   32.1157,       316,
    32.146,       310,
   32.1764,       298,
   32.2067,       279,
    32.237,       307,
   32.2673,       297,
   32.2977,       297,
    32.328,       313,
   32.3583,       308,
   32.3887,       302,
    32.419,       298,
   32.4493,       343,
   32.4796,       300,
     32.51,       321,
   32.5403,       298,
   32.5706,       298,
    32.601,       309,
   32.6313,       298,
   32.6616,       303,
   32.6919,       310,
   32.7223,       281,
   32.7526,       284,
   32.7829,       318,
   32.8132,       321,
   32.8436,       293,
   32.8739,       288,
   32.9042,       316,
   32.9346,       321,
   32.9649,       309,
   32.9952,       269,
   33.0255,       266,
   33.0559,       289,
   33.0862,       308,
   33.1165,       297,
   33.1469,       272,
   33.1772,       289,
   33.2075,       299,
   33.2378,       294,
   33.2682,       288,
   33.2985,       293,
   33.3288,       296,
   33.3592,       292,
   33.3895,       286,
   33.4198,       300,
   33.4501,       306,
   33.4805,       298,
   33.5108,       270,
   33.5411,       271,
   33.5715,       285,
   33.6018,       296,
   33.6321,       292,
   33.6624,       297,
   33.6928,       297,
   33.7231,       317,
   33.7534,       295,
   33.7837,       340,
   33.8141,       324,
   33.8444,       286,
   33.8747,       331,
   33.9051,       319,
   33.9354,       351,
   33.9657,       341,
    33.996,       316,
   34.0264,       350,
   34.0567,       408,
    34.087,       367,
   34.1174,       389,
   34.1477,       446,
    34.178,       503,
   34.2083,       674,
   34.2387,       863,
    34.269,      1207,
   34.2993,      1481,
   34.3297,      1472,
     34.36,      1279,
   34.3903,      1043,
   34.4206,       971,
    34.451,       900,
   34.4813,       886,
   34.5116,       931,
    34.542,      1013,
   34.5723,      1070,
   34.6026,      1168,
   34.6329,      1133,
   34.6633,      1087,
   34.6936,      1072,
   34.7239,      1117,
   34.7542,      1055,
   34.7846,      1076,
   34.8149,      1015,
   34.8452,      1003,
   34.8756,       927,
   34.9059,       793,
   34.9362,       762,
   34.9665,       747,
   34.9969,       721,
   35.0272,       673,
   35.0575,       606,
   35.0879,       604,
   35.1182,       568,
   35.1485,       535,
   35.1788,       528,
   35.2092,       486,
   35.2395,       418,
   35.2698,       442,
   35.3002,       440,
   35.3305,       442,
   35.3608,       399,
   35.3911,       400,
   35.4215,       388,
   35.4518,       407,
   35.4821,       378,
   35.5125,       383,
   35.5428,       352,
   35.5731,       369,
   35.6034,       367,
   35.6338,       355,
   35.6641,       401,
   35.6944,       376,
   35.7248,       352,
   35.7551,       345,
   35.7854,       360,
   35.8157,       368,
   35.8461,       380,
   35.8764,       379,
   35.9067,       362,
    35.937,       353,
   35.9674,       363,
   35.9977,       342,
    36.028,       388,
   36.0584,       352,
   36.0887,       353,
    36.119,       342,
   36.1493,       326,
   36.1797,       312,
     36.21,       317,
   36.2403,       376,
   36.2707,       371,
    36.301,       330,
   36.3313,       294,
   36.3616,       318,
    36.392,       274,
   36.4223,       294,
   36.4526,       277,
    36.483,       279,
   36.5133,       258,
   36.5436,       268,
   36.5739,       272,
   36.6043,       307,
   36.6346,       301,
   36.6649,       289,
   36.6953,       293,
   36.7256,       275,
   36.7559,       278,
   36.7862,       272,
   36.8166,       286,
   36.8469,       278,
   36.8772,       274,
   36.9075,       263,
   36.9379,       291,
   36.9682,       284,
   36.9985,       289,
   37.0289,       280,
   37.0592,       309,
   37.0895,       270,
   37.1198,       249,
   37.1502,       292,
   37.1805,       273,
   37.2108,       254,
   37.2412,       258,
   37.2715,       263,
   37.3018,       271,
   37.3321,       272,
   37.3625,       258,
   37.3928,       277,
   37.4231,       266,
   37.4535,       276,
   37.4838,       243,
   37.5141,       282,
   37.5444,       273,
   37.5748,       272,
   37.6051,       291,
   37.6354,       255,
   37.6658,       263,
   37.6961,       272,
   37.7264,       286,
   37.7567,       294,
   37.7871,       305,
   37.8174,       283,
   37.8477,       257,
    37.878,       254,
   37.9084,       255,
   37.9387,       273,
    37.969,       260,
   37.9994,       249,
   38.0297,       269,
     38.06,       286,
   38.0903,       281,
   38.1207,       301,
    38.151,       313,
   38.1813,       323,
   38.2117,       326,
    38.242,       305,
   38.2723,       322,
   38.3026,       337,
    38.333,       272,
   38.3633,       286,
   38.3936,       310,
    38.424,       314,
   38.4543,       286,
   38.4846,       310,
   38.5149,       338,
   38.5453,       418,
   38.5756,       514,
   38.6059,       595,
   38.6363,       641,
   38.6666,       531,
   38.6969,       540,
   38.7272,       398,
   38.7576,       386,
   38.7879,       356,
   38.8182,       306,
   38.8485,       300,
   38.8789,       307,
   38.9092,       269,
   38.9395,       275,
   38.9699,       297,
   39.0002,       259,
   39.0305,       282,
   39.0608,       248,
   39.0912,       259,
   39.1215,       250,
   39.1518,       246,
   39.1822,       247,
   39.2125,       267,
   39.2428,       258,
   39.2731,       275,
   39.3035,       252,
   39.3338,       261,
   39.3641,       270,
   39.3945,       246,
   39.4248,       249,
   39.4551,       252,
   39.4854,       258,
   39.5158,       234,
   39.5461,       223,
   39.5764,       267,
   39.6068,       246,
   39.6371,       247,
   39.6674,       261,
   39.6977,       252,
   39.7281,       239,
   39.7584,       257,
   39.7887,       256,
    39.819,       253,
   39.8494,       236,
   39.8797,       263,
     39.91,       243,
   39.9404,       266,
   39.9707,       247,
    40.001,       232,
   40.0313,       297,
   40.0617,       269,
    40.092,       248,
   40.1223,       240,
   40.1527,       240,
    40.183,       280,
   40.2133,       287,
   40.2436,       267,
    40.274,       236,
   40.3043,       233,
   40.3346,       283,
    40.365,       262,
   40.3953,       265,
   40.4256,       263,
   40.4559,       267,
   40.4863,       267,
   40.5166,       257,
   40.5469,       254,
   40.5773,       265,
   40.6076,       268,
   40.6379,       258,
   40.6682,       273,
   40.6986,       269,
   40.7289,       291,
   40.7592,       265,
   40.7895,       308,
   40.8199,       272,
   40.8502,       250,
   40.8805,       275,
   40.9109,       278,
   40.9412,       259,
   40.9715,       255,
   41.0018,       254,
   41.0322,       256,
   41.0625,       264,
   41.0928,       293,
   41.1232,       266,
   41.1535,       277,
   41.1838,       259,
   41.2141,       247,
   41.2445,       261,
   41.2748,       270,
   41.3051,       280,
   41.3355,       276,
   41.3658,       250,
   41.3961,       236,
   41.4264,       257,
   41.4568,       275,
   41.4871,       267,
   41.5174,       255,
   41.5478,       266,
   41.5781,       262,
   41.6084,       245,
   41.6387,       284,
   41.6691,       263,
   41.6994,       251,
   41.7297,       267,
   41.7601,       285,
   41.7904,       279,
   41.8207,       288,
    41.851,       282,
   41.8814,       279,
   41.9117,       305,
    41.942,       302,
   41.9723,       290,
   42.0027,       383,
    42.033,       401,
   42.0633,       469,
   42.0937,       526,
    42.124,       524,
   42.1543,       503,
   42.1846,       506,
    42.215,       480,
   42.2453,       496,
   42.2756,       448,
    42.306,       465,
   42.3363,       424,
   42.3666,       386,
   42.3969,       381,
   42.4273,       403,
   42.4576,       381,
   42.4879,       356,
   42.5183,       342,
   42.5486,       371,
   42.5789,       357,
   42.6092,       354,
   42.6396,       339,
   42.6699,       347,
   42.7002,       318,
   42.7306,       272,
   42.7609,       322,
   42.7912,       316,
   42.8215,       344,
   42.8519,       294,
   42.8822,       271,
   42.9125,       295,
   42.9428,       284,
   42.9732,       286,
   43.0035,       271,
   43.0338,       303,
   43.0642,       267,
   43.0945,       270,
   43.1248,       236,
   43.1551,       284,
   43.1855,       276,
   43.2158,       286,
   43.2461,       245,
   43.2765,       309,
   43.3068,       294,
   43.3371,       265,
   43.3674,       261,
   43.3978,       278,
   43.4281,       300,
   43.4584,       316,
   43.4888,       336,
   43.5191,       341,
   43.5494,       315,
   43.5797,       334,
   43.6101,       317,
   43.6404,       267,
   43.6707,       288,
   43.7011,       266,
   43.7314,       271,
   43.7617,       262,
    43.792,       265,
   43.8224,       279,
   43.8527,       274,
    43.883,       259,
   43.9133,       269,
   43.9437,       277,
    43.974,       281,
   44.0043,       268,
   44.0347,       248,
    44.065,       253,
   44.0953,       297,
   44.1256,       317,
    44.156,       321,
   44.1863,       367,
   44.2166,       412,
    44.247,       539,
   44.2773,       457,
   44.3076,       463,
   44.3379,       405,
   44.3683,       320,
   44.3986,       299,
   44.4289,       266,
   44.4593,       272,
   44.4896,       274,
   44.5199,       247,
   44.5502,       275,
   44.5806,       284,
   44.6109,       265,
   44.6412,       270,
   44.6716,       279,
   44.7019,       291,
   44.7322,       266,
   44.7625,       290,
   44.7929,       285,
   44.8232,       322,
   44.8535,       374,
   44.8838,       428,
   44.9142,       398,
   44.9445,       386,
   44.9748,       364,
   45.0052,       355,
   45.0355,       336,
   45.0658,       343,
   45.0961,       382,
   45.1265,       343,
   45.1568,       332,
   45.1871,       313,
   45.2175,       275,
   45.2478,       276,
   45.2781,       255,
   45.3084,       259,
   45.3388,       257,
   45.3691,       262,
   45.3994,       271,
   45.4298,       257,
   45.4601,       264,
   45.4904,       225,
   45.5207,       211,
   45.5511,       261,
   45.5814,       224,
   45.6117,       229,
   45.6421,       233,
   45.6724,       243,
   45.7027,       245,
    45.733,       229,
   45.7634,       247,
   45.7937,       214,
    45.824,       228,
   45.8543,       225,
   45.8847,       260,
    45.915,       243,
   45.9453,       246,
   45.9757,       285,
    46.006,       235,
   46.0363,       281,
   46.0666,       282,
    46.097,       339,
   46.1273,       381,
   46.1576,       358,
    46.188,       363,
   46.2183,       341,
   46.2486,       318,
   46.2789,       312,
   46.3093,       266,
   46.3396,       287,
   46.3699,       314,
   46.4003,       314,
   46.4306,       331,
   46.4609,       316,
   46.4912,       317,
   46.5216,       320,
   46.5519,       342,
   46.5822,       333,
   46.6126,       357,
   46.6429,       323,
   46.6732,       343,
   46.7035,       328,
   46.7339,       296,
   46.7642,       311,
   46.7945,       312,
   46.8249,       305,
   46.8552,       316,
   46.8855,       312,
   46.9158,       302,
   46.9462,       296,
   46.9765,       278,
   47.0068,       269,
   47.0371,       265,
   47.0675,       267,
   47.0978,       299,
   47.1281,       260,
   47.1585,       267,
   47.1888,       253,
   47.2191,       249,
   47.2494,       275,
   47.2798,       258,
   47.3101,       269,
   47.3404,       245,
   47.3708,       253,
   47.4011,       252,
   47.4314,       274,
   47.4617,       227,
   47.4921,       249,
   47.5224,       223,
   47.5527,       230,
   47.5831,       224,
   47.6134,       267,
   47.6437,       255,
    47.674,       258,
   47.7044,       252,
   47.7347,       245,
    47.765,       262,
   47.7954,       249,
   47.8257,       259,
    47.856,       232,
   47.8863,       245,
   47.9167,       244,
    47.947,       248,
   47.9773,       234,
   48.0076,       256,
    48.038,       254,
   48.0683,       232,
   48.0986,       262,
    48.129,       327,
   48.1593,       281,
   48.1896,       271,
   48.2199,       301,
   48.2503,       247,
   48.2806,       294,
   48.3109,       302,
   48.3413,       245,
   48.3716,       236,
   48.4019,       231,
   48.4322,       224,
   48.4626,       224,
   48.4929,       233,
   48.5232,       241,
   48.5536,       233,
   48.5839,       216,
   48.6142,       231,
   48.6445,       258,
   48.6749,       239,
   48.7052,       209,
   48.7355,       222,
   48.7659,       212,
   48.7962,       246,
   48.8265,       203,
   48.8568,       231,
   48.8872,       220,
   48.9175,       221,
   48.9478,       229,
   48.9781,       213,
   49.0085,       216,
   49.0388,       229,
   49.0691,       226,
   49.0995,       215,
   49.1298,       232,
   49.1601,       201,
   49.1904,       230,
   49.2208,       222,
   49.2511,       240,
   49.2814,       202,
   49.3118,       231,
   49.3421,       223,
   49.3724,       226,
   49.4027,       216,
   49.4331,       225,
   49.4634,       234,
   49.4937,       210,
   49.5241,       217,
   49.5544,       226,
   49.5847,       235,
    49.615,       229,
   49.6454,       218,
   49.6757,       216,
    49.706,       219,
   49.7364,       228,
   49.7667,       225,
    49.797,       237,
   49.8273,       213,
   49.8577,       235,
    49.888,       207,
   49.9183,       235,
   49.9486,       215,
    49.979,       223,
   50.0093,       244,
   50.0396,       219,
     50.07,       249,
   50.1003,       247,
   50.1306,       240,
   50.1609,       294,
   50.1913,       316,
   50.2216,       365,
   50.2519,       334,
   50.2823,       310,
   50.3126,       353,
   50.3429,       316,
   50.3732,       279,
   50.4036,       287,
   50.4339,       256,
   50.4642,       281,
   50.4946,       282,
   50.5249,       270,
   50.5552,       325,
   50.5855,       368,
   50.6159,       316,
   50.6462,       292,
   50.6765,       335,
   50.7069,       292,
   50.7372,       350,
   50.7675,       281,
   50.7978,       277,
   50.8282,       263,
   50.8585,       281,
   50.8888,       279,
   50.9191,       290,
   50.9495,       298,
   50.9798,       303,
   51.0101,       291,
   51.0405,       302,
   51.0708,       298,
   51.1011,       317,
   51.1314,       332,
   51.1618,       302,
   51.1921,       319,
   51.2224,       323,
   51.2528,       292,
   51.2831,       287,
   51.3134,       317,
   51.3437,       327,
   51.3741,       286,
   51.4044,       279,
   51.4347,       313,
   51.4651,       264,
   51.4954,       269,
   51.5257,       289,
    51.556,       264,
   51.5864,       275,
   51.6167,       261,
    51.647,       276,
   51.6774,       265,
   51.7077,       238,
    51.738,       261,
   51.7683,       239,
   51.7987,       237,
    51.829,       239,
   51.8593,       245,
   51.8897,       244,
     51.92,       242,
   51.9503,       261,
   51.9806,       240,
    52.011,       255,
   52.0413,       249,
   52.0716,       225,
   52.1019,       233,
   52.1323,       226,
   52.1626,       262,
   52.1929,       232,
   52.2233,       230,
   52.2536,       270,
   52.2839,       257,
   52.3142,       254,
   52.3446,       249,
   52.3749,       280,
   52.4052,       239,
   52.4356,       241,
   52.4659,       246,
   52.4962,       249,
   52.5265,       239,
   52.5569,       258,
   52.5872,       236,
   52.6175,       215,
   52.6479,       232,
   52.6782,       231,
   52.7085,       262,
   52.7388,       263,
   52.7692,       223,
   52.7995,       220,
   52.8298,       248,
   52.8602,       248,
   52.8905,       273,
   52.9208,       243,
   52.9511,       219,
   52.9815,       239,
   53.0118,       252,
   53.0421,       222,
   53.0724,       243,
   53.1028,       273,
   53.1331,       247,
   53.1634,       229,
   53.1938,       245,
   53.2241,       265,
   53.2544,       265,
   53.2847,       266,
   53.3151,       289,
   53.3454,       283,
   53.3757,       278,
   53.4061,       290,
   53.4364,       282,
   53.4667,       279,
    53.497,       259,
   53.5274,       245,
   53.5577,       284,
    53.588,       283,
   53.6184,       286,
   53.6487,       313,
    53.679,       407,
   53.7093,       498,
   53.7397,       607,
     53.77,       571,
   53.8003,       483,
   53.8307,       477,
    53.861,       454,
   53.8913,       396,
   53.9216,       336,
    53.952,       327,
   53.9823,       301,
   54.0126,       269,
   54.0429,       271,
   54.0733,       273,
   54.1036,       242,
   54.1339,       288,
   54.1643,       247,
   54.1946,       249,
   54.2249,       235,
   54.2552,       240,
   54.2856,       261,
   54.3159,       250,
   54.3462,       250,
   54.3766,       261,
   54.4069,       252,
   54.4372,       271,
   54.4675,       261,
   54.4979,       242,
   54.5282,       239,
   54.5585,       275,
   54.5889,       234,
   54.6192,       245,
   54.6495,       244,
   54.6798,       247,
   54.7102,       227,
   54.7405,       237,
   54.7708,       263,
   54.8012,       239,
   54.8315,       236,
   54.8618,       248,
   54.8921,       232,
   54.9225,       237,
   54.9528,       237,
   54.9831,       266,
   55.0134,       248,
   55.0438,       251,
   55.0741,       246,
   55.1044,       234,
   55.1348,       263,
   55.1651,       253,
   55.1954,       253,
   55.2257,       244,
   55.2561,       244,
   55.2864,       266,
   55.3167,       281,
   55.3471,       240,
   55.3774,       262,
   55.4077,       284,
    55.438,       271,
   55.4684,       263,
   55.4987,       293,
    55.529,       278,
   55.5594,       291,
   55.5897,       314,
     55.62,       275,
   55.6503,       286,
   55.6807,       317,
    55.711,       285,
   55.7413,       329,
   55.7717,       352,
    55.802,       359,
   55.8323,       339,
   55.8626,       372,
    55.893,       373,
   55.9233,       364,
   55.9536,       343,
   55.9839,       318,
   56.0143,       360,
   56.0446,       299,
   56.0749,       335,
   56.1053,       308,
   56.1356,       302,
   56.1659,       306,
   56.1962,       320,
   56.2266,       307,
   56.2569,       345,
   56.2872,       338,
   56.3176,       317,
   56.3479,       299,
   56.3782,       309,
   56.4085,       323,
   56.4389,       343,
   56.4692,       343,
   56.4995,       330,
   56.5299,       359,
   56.5602,       304,
   56.5905,       344,
   56.6208,       349,
   56.6512,       379,
   56.6815,       422,
   56.7118,       447,
   56.7422,       405,
   56.7725,       407,
   56.8028,       440,
   56.8331,       432,
   56.8635,       407,
   56.8938,       376,
   56.9241,       405,
   56.9544,       405,
   56.9848,       444,
   57.0151,       432,
   57.0454,       391,
   57.0758,       338,
   57.1061,       391,
   57.1364,       366,
   57.1667,       329,
   57.1971,       342,
   57.2274,       321,
   57.2577,       328,
   57.2881,       299,
   57.3184,       320,
   57.3487,       332,
    57.379,       348,
   57.4094,       326,
   57.4397,       339,
     57.47,       301,
   57.5004,       319,
   57.5307,       330,
    57.561,       365,
   57.5913,       347,
   57.6217,       343,
    57.652,       341,
   57.6823,       339,
   57.7127,       299,
    57.743,       365,
   57.7733,       333,
   57.8036,       309,
    57.834,       337,
   57.8643,       322,
   57.8946,       351,
    57.925,       280,
   57.9553,       305,
   57.9856,       304,
   58.0159,       309,
   58.0463,       311,
   58.0766,       297,
   58.1069,       290,
   58.1372,       292,
   58.1676,       310,
   58.1979,       280,
   58.2282,       258,
   58.2586,       306,
   58.2889,       282,
   58.3192,       298,
   58.3495,       289,
   58.3799,       277,
   58.4102,       287,
   58.4405,       304,
   58.4709,       275,
   58.5012,       290,
   58.5315,       279,
   58.5618,       315,
   58.5922,       253,
   58.6225,       285,
   58.6528,       274,
   58.6832,       251,
   58.7135,       279,
   58.7438,       269,
   58.7741,       280,
   58.8045,       305,
   58.8348,       283,
   58.8651,       278,
   58.8955,       310,
   58.9258,       309,
   58.9561,       344,
   58.9864,       339,
   59.0168,       336,
   59.0471,       328,
   59.0774,       324,
   59.1077,       332,
   59.1381,       310,
   59.1684,       357,
   59.1987,       309,
   59.2291,       271,
   59.2594,       293,
   59.2897,       284,
     59.32,       272,
   59.3504,       263,
   59.3807,       291,
    59.411,       227,
   59.4414,       288,
   59.4717,       247,
    59.502,       270,
   59.5323,       232,
   59.5627,       257,
    59.593,       266,
   59.6233,       250,
   59.6537,       249,
    59.684,       253,
   59.7143,       229,
   59.7446,       257,
    59.775,       260,
   59.8053,       249,
   59.8356,       253,
    59.866,       260,
   59.8963,       222,
   59.9266,       253,
   59.9569,       263,
   59.9873,       285,
   60.0176,       243,
   60.0479,       263,
   60.0782,       237,
   60.1086,       242,
   60.1389,       258,
   60.1692,       236,
   60.1996,       253,
   60.2299,       226,
   60.2602,       247,
   60.2905,       241,
   60.3209,       260,
   60.3512,       230,
   60.3815,       218,
   60.4119,       249,
   60.4422,       253,
   60.4725,       188,
   60.5028,       261,
   60.5332,       257,
   60.5635,       248,
   60.5938,       232,
   60.6242,       244,
   60.6545,       228,
   60.6848,       229,
   60.7151,       240,
   60.7455,       226,
   60.7758,       231,
   60.8061,       239,
   60.8365,       218,
   60.8668,       240,
   60.8971,       224,
   60.9274,       255,
   60.9578,       230,
   60.9881,       253,
   61.0184,       243,
   61.0487,       245,
   61.0791,       269,
   61.1094,       261,
   61.1397,       215,
   61.1701,       244,
   61.2004,       234,
   61.2307,       247,
    61.261,       253,
   61.2914,       249,
   61.3217,       225,
    61.352,       232,
   61.3824,       254,
   61.4127,       240,
    61.443,       230,
   61.4733,       237,
   61.5037,       243,
    61.534,       251,
   61.5643,       246,
   61.5947,       292,
    61.625,       285,
   61.6553,       331,
   61.6856,       333,
    61.716,       321,
   61.7463,       284,
   61.7766,       298,
    61.807,       281,
   61.8373,       271,
   61.8676,       260,
   61.8979,       252,
   61.9283,       237,
   61.9586,       259,
   61.9889,       249,
   62.0192,       209,
   62.0496,       255,
   62.0799,       251,
   62.1102,       252,
   62.1406,       220,
   62.1709,       263,
   62.2012,       239,
   62.2315,       261,
   62.2619,       247,
   62.2922,       244,
   62.3225,       278,
   62.3529,       254,
   62.3832,       290,
   62.4135,       272,
   62.4438,       269,
   62.4742,       225,
   62.5045,       261,
   62.5348,       249,
   62.5652,       217,
   62.5955,       227,
   62.6258,       232,
   62.6561,       237,
   62.6865,       247,
   62.7168,       209,
   62.7471,       244,
   62.7775,       205,
   62.8078,       223,
   62.8381,       232,
   62.8684,       228,
   62.8988,       240,
   62.9291,       200,
   62.9594,       199,
   62.9898,       213,
   63.0201,       207,
   63.0504,       223,
   63.0807,       217,
   63.1111,       185,
   63.1414,       189,
   63.1717,       230,
    63.202,       201,
   63.2324,       208,
   63.2627,       200,
    63.293,       208,
   63.3234,       211,
   63.3537,       200,
    63.384,       234,
   63.4143,       233,
   63.4447,       240,
    63.475,       214,
   63.5053,       211,
   63.5357,       212,
    63.566,       217,
   63.5963,       231,
   63.6266,       211,
    63.657,       209,
   63.6873,       241,
   63.7176,       175,
    63.748,       185,
   63.7783,       217,
   63.8086,       193,
   63.8389,       198,
   63.8693,       208,
   63.8996,       195,
   63.9299,       210,
   63.9603,       220,
   63.9906,       197,
   64.0209,       197,
   64.0512,       198,
   64.0816,       190,
   64.1119,       221,
   64.1422,       209,
   64.1725,       200,
   64.2029,       194,
   64.2332,       227,
   64.2635,       216,
   64.2939,       192,
   64.3242,       206,
   64.3545,       202,
   64.3848,       181,
   64.4152,       186,
   64.4455,       210,
   64.4758,       195,
   64.5062,       232,
   64.5365,       199,
   64.5668,       201,
   64.5971,       221,
   64.6275,       207,
   64.6578,       242,
   64.6881,       190,
   64.7185,       173,
   64.7488,       204,
   64.7791,       200,
   64.8094,       230,
   64.8398,       217,
   64.8701,       178,
   64.9004,       217,
   64.9308,       182,
   64.9611,       188,
   64.9914,       154,
   65.0217,       183,
   65.0521,       226,
   65.0824,       209,
   65.1127,       188,
    65.143,       205,
   65.1734,       207,
   65.2037,       199,
    65.234,       189,
   65.2644,       179,
   65.2947,       169,
    65.325,       184,
   65.3553,       207,
   65.3857,       215,
    65.416,       189,
   65.4463,       194,
   65.4767,       179,
    65.507,       188,
   65.5373,       208,
   65.5676,       184,
    65.598,       173,
   65.6283,       188,
   65.6586,       203,
    65.689,       179,
   65.7193,       197,
   65.7496,       189,
   65.7799,       192,
   65.8103,       217,
   65.8406,       174,
   65.8709,       191,
   65.9013,       192,
   65.9316,       194,
   65.9619,       191,
   65.9922,       188,
   66.0226,       204,
   66.0529,       198,
   66.0832,       197,
   66.1135,       197,
   66.1439,       186,
   66.1742,       201,
   66.2045,       208,
   66.2349,       211,
   66.2652,       181,
   66.2955,       190,
   66.3258,       179,
   66.3562,       204,
   66.3865,       201,
   66.4168,       204,
   66.4472,       157,
   66.4775,       192,
   66.5078,       176,
   66.5381,       202,
   66.5685,       195,
   66.5988,       213,
   66.6291,       197,
   66.6595,       213,
   66.6898,       210,
   66.7201,       182,
   66.7504,       205,
   66.7808,       188,
   66.8111,       199,
   66.8414,       214,
   66.8718,       179,
   66.9021,       184,
   66.9324,       187,
   66.9627,       218,
   66.9931,       201,
   67.0234,       199,
   67.0537,       191,
    67.084,       174,
   67.1144,       193,
   67.1447,       160,
    67.175,       213,
   67.2054,       203,
   67.2357,       168,
    67.266,       181,
   67.2963,       190,
   67.3267,       199,
    67.357,       200,
   67.3873,       182,
   67.4177,       193,
    67.448,       199,
   67.4783,       206,
   67.5086,       184,
    67.539,       205,
   67.5693,       232,
   67.5996,       173,
     67.63,       179,
   67.6603,       169,
   67.6906,       183,
   67.7209,       178,
   67.7513,       213,
   67.7816,       245,
   67.8119,       219,
   67.8423,       216,
   67.8726,       235,
   67.9029,       198,
   67.9332,       216,
   67.9636,       199,
   67.9939,       211,
   68.0242,       200,
   68.0546,       216,
   68.0849,       221,
   68.1152,       199,
   68.1455,       176,
   68.1759,       188,
   68.2062,       210,
   68.2365,       198,
   68.2668,       200,
   68.2972,       215,
   68.3275,       198,
   68.3578,       202,
   68.3882,       202,
   68.4185,       219,
   68.4488,       208,
   68.4791,       212,
   68.5095,       205,
   68.5398,       204,
   68.5701,       183,
   68.6005,       204,
   68.6308,       203,
   68.6611,       194,
   68.6914,       201,
   68.7218,       174,
   68.7521,       178,
   68.7824,       205,
   68.8128,       212,
   68.8431,       195,
   68.8734,       208,
   68.9037,       208,
   68.9341,       200,
   68.9644,       188,
   68.9947,       179,
   69.0251,       198,
   69.0554,       206,
   69.0857,       180,
    69.116,       199,
   69.1464,       193,
   69.1767,       189,
    69.207,       184,
   69.2373,       197,
   69.2677,       196,
    69.298,       182,
   69.3283,       194,
   69.3587,       197,
    69.389,       205,
   69.4193,       200,
   69.4496,       186,
     69.48,       183,
   69.5103,       174,
   69.5406,       177,
    69.571,       172,
   69.6013,       184,
   69.6316,       190,
   69.6619,       177,
   69.6923,       170,
   69.7226,       183,
   69.7529,       199,
   69.7833,       165,
   69.8136,       212,
   69.8439,       165,
   69.8742,       176,
   69.9046,       214,
   69.9349,       186,
   69.9652,       201,
   69.9956,       189,
