;RAW4.00
[RawHeader]
Date=04/21/2019
EstimatedTotalTime=2311.07
FurtherDQLReading=0
HardwareIndicator=65519
MeasuredTotalTime=2311.07
MeasurementFlag=1
NumberOfMeasuredRanges=1
NumberOfRanges=1
Time=15:04:12

[VarInfo]
Type=USER
Flags=0
Value=Bruker Service

[VarInfo]
Type=SAMPLEID
Flags=0
Value=Commander Sample ID

[VarInfo]
Type=COMMENT
Flags=0
Value=

[VarInfo]
Type=UTF
Flags=0
Value=

[VarInfo]
Type=CREATOR
Flags=0
Value=BrmlToV4Converter

[VarInfo]
Type=CREATOR_VERSION
Flags=0
Value=7.3.0.0

[HardwareConfiguration]
AbsorptionFactor=9999
ActivateAbsorber=0
Alpha1=1.78897
Alpha2=1.79285
AlphaAverage=1.79026
AlphaRatio=0.5
Analyzer=0
Anode=Co
AntiScatteringSlit=9999
BeamOpticsFlags=0
Beta=1.62079
BetaRelativeIntensity=0
DeactivateAbsorber=0
DetectorSlit=9999
DivergenceSlit=1
GoniometerControl=0
GoniometerDiameter=282
GoniometerModel=256
GoniometerStage=7
Monochromator=0
NearSampleSlit=9999
PrimarySollerSlit=9999
SampleChanger=0
SecondSollerSlit=9999
SynchronousAxis=0
ThinFilmAttachment=9999
WaveUnit=A

[RangeHeader]
ActuallyUsedLambda=1.79026
AdditionalDetectorMask=257
DataRecordLength=4
DelayTime=0
DisplayPlaneNumber=0
EstimatedScanTime=2311
ExtraParametersMask=0
GeneratorCurrent=10
GeneratorVoltage=30
Increment=0.0303281
Increment3=0
NumberOfCompletedData=2144
NumberOfCounts=1
NumberOfDetectors=0
NumberOfDrives=2
NumberOfEncoderDrives=0
NumberOfMeasuredData=2144
NumberOfVaryingParameters=0
RangeStartTime=0
RotationSpeed=1
ScanMode=1
ScanType=Locked Coupled
SimulatedMeasConditions=0
SlitChangerIn=0
SmootingWidth=0
Start=5.00234
Steps=2144
SynchronousRotation=0
Time=165

[VarInfo]
Type=PSD_DISCRIM
Flags=0
Value=0.11;0.25

[PSD]
ActualTwoTheta=9999
FirstUsedChannel=0
FixedPSD=0
PSDOpening=5.00414
PSDType=5

[Drive]
DriveFlags=1
DriveName=2Theta
DriveNumber=2
DriveOffset=0
OffsetIndex=0
OscillationAmplitude=0
OscillationSpeed=0
StartPosition=5.00234

[Drive]
DriveFlags=1
DriveName=Theta
DriveNumber=1
DriveOffset=0
OffsetIndex=0
OscillationAmplitude=0
OscillationSpeed=0
StartPosition=2.50117

[Data]
     Angle,       PSD,
   5.00234,      8570,
   5.03267,      8330,
     5.063,      8346,
   5.09333,      8272,
   5.12365,      8135,
   5.15398,      8043,
   5.18431,      8104,
   5.21464,      7685,
   5.24497,      7705,
   5.27529,      7607,
   5.30562,      7298,
   5.33595,      7431,
   5.36628,      7176,
   5.39661,      7155,
   5.42694,      7045,
   5.45726,      6989,
   5.48759,      6959,
   5.51792,      6772,
   5.54825,      6577,
   5.57858,      6352,
    5.6089,      6183,
   5.63923,      6090,
   5.66956,      5834,
   5.69989,      5788,
   5.73022,      5614,
   5.76055,      5489,
   5.79087,      5290,
    5.8212,      5347,
   5.85153,      5236,
   5.88186,      5214,
   5.91219,      5187,
   5.94251,      5181,
   5.97284,      4904,
   6.00317,      5082,
    6.0335,      4948,
   6.06383,      4860,
   6.09415,      4866,
   6.12448,      4626,
   6.15481,      4480,
   6.18514,      4440,
   6.21547,      4638,
    6.2458,      4430,
   6.27612,      4456,
   6.30645,      4318,
   6.33678,      4282,
   6.36711,      4182,
   6.39744,      4276,
   6.42776,      4220,
   6.45809,      4229,
   6.48842,      4075,
   6.51875,      4057,
   6.54908,      4032,
    6.5794,      3904,
   6.60973,      3914,
   6.64006,      3802,
   6.67039,      3801,
   6.70072,      3740,
   6.73105,      3673,
   6.76137,      3615,
    6.7917,      3576,
   6.82203,      3570,
   6.85236,      3442,
   6.88269,      3444,
   6.91301,      3422,
   6.94334,      3367,
   6.97367,      3306,
     7.004,      3315,
   7.03433,      3347,
   7.06466,      3272,
   7.09498,      3077,
   7.12531,      3108,
   7.15564,      3164,
   7.18597,      3167,
    7.2163,      3070,
   7.24662,      3022,
   7.27695,      2961,
   7.30728,      2923,
   7.33761,      2889,
   7.36794,      2872,
   7.39826,      2795,
   7.42859,      2892,
   7.45892,      2825,
   7.48925,      2748,
   7.51958,      2713,
   7.54991,      2660,
   7.58023,      2731,
   7.61056,      2706,
   7.64089,      2600,
   7.67122,      2485,
   7.70155,      2549,
   7.73187,      2596,
    7.7622,      2451,
   7.79253,      2424,
   7.82286,      2415,
   7.85319,      2389,
   7.88352,      2400,
   7.91384,      2355,
   7.94417,      2434,
    7.9745,      2356,
   8.00483,      2293,
   8.03516,      2226,
   8.06548,      2192,
   8.09581,      2199,
   8.12614,      2193,
   8.15647,      2107,
    8.1868,      2150,
   8.21712,      2096,
   8.24745,      2162,
   8.27778,      2134,
   8.30811,      2044,
   8.33844,      2045,
   8.36877,      2106,
   8.39909,      2082,
   8.42942,      2013,
   8.45975,      1957,
   8.49008,      1928,
   8.52041,      1890,
   8.55073,      1955,
   8.58106,      1832,
   8.61139,      1919,
   8.64172,      1923,
   8.67205,      1842,
   8.70237,      1836,
    8.7327,      1720,
   8.76303,      1830,
   8.79336,      1702,
   8.82369,      1791,
   8.85402,      1826,
   8.88434,      1721,
   8.91467,      1724,
     8.945,      1757,
   8.97533,      1706,
   9.00566,      1658,
   9.03598,      1675,
   9.06631,      1662,
   9.09664,      1635,
   9.12697,      1747,
    9.1573,      1647,
   9.18763,      1697,
   9.21795,      1599,
   9.24828,      1619,
   9.27861,      1645,
   9.30894,      1567,
   9.33927,      1526,
   9.36959,      1561,
   9.39992,      1547,
   9.43025,      1555,
   9.46058,      1572,
   9.49091,      1456,
   9.52123,      1534,
   9.55156,      1542,
   9.58189,      1452,
   9.61222,      1472,
   9.64255,      1501,
   9.67288,      1404,
    9.7032,      1389,
   9.73353,      1407,
   9.76386,      1376,
   9.79419,      1418,
   9.82452,      1430,
   9.85484,      1432,
   9.88517,      1402,
    9.9155,      1397,
   9.94583,      1416,
   9.97616,      1363,
   10.0065,      1415,
   10.0368,      1391,
   10.0671,      1382,
   10.0975,      1374,
   10.1278,      1370,
   10.1581,      1335,
   10.1885,      1349,
   10.2188,      1328,
   10.2491,      1357,
   10.2794,      1324,
   10.3098,      1388,
   10.3401,      1341,
   10.3704,      1326,
   10.4008,      1254,
   10.4311,      1295,
   10.4614,      1277,
   10.4917,      1313,
   10.5221,      1272,
   10.5524,      1352,
   10.5827,      1303,
    10.613,      1308,
   10.6434,      1280,
   10.6737,      1287,
    10.704,      1291,
   10.7344,      1194,
   10.7647,      1254,
    10.795,      1288,
   10.8253,      1248,
   10.8557,      1248,
    10.886,      1252,
   10.9163,      1272,
   10.9467,      1226,
    10.977,      1303,
   11.0073,      1237,
   11.0376,      1208,
    11.068,      1252,
   11.0983,      1202,
   11.1286,      1275,
    11.159,      1187,
   11.1893,      1252,
   11.2196,      1237,
   11.2499,      1181,
   11.2803,      1160,
   11.3106,      1283,
   11.3409,      1208,
   11.3713,      1232,
   11.4016,      1146,
   11.4319,      1213,
   11.4622,      1129,
   11.4926,      1235,
   11.5229,      1216,
   11.5532,      1158,
   11.5835,      1157,
   11.6139,      1212,
   11.6442,      1200,
   11.6745,      1195,
   11.7049,      1237,
   11.7352,      1186,
   11.7655,      1209,
   11.7958,      1199,
   11.8262,      1148,
   11.8565,      1070,
   11.8868,      1137,
   11.9172,      1152,
   11.9475,      1116,
   11.9778,      1166,
   12.0081,      1156,
   12.0385,      1125,
   12.0688,      1088,
   12.0991,      1103,
   12.1295,      1087,
   12.1598,      1112,
   12.1901,      1131,
   12.2204,      1111,
   12.2508,      1135,
   12.2811,      1088,
   12.3114,      1113,
   12.3418,      1082,
   12.3721,      1010,
   12.4024,      1101,
   12.4327,      1128,
   12.4631,      1075,
   12.4934,      1095,
   12.5237,      1077,
    12.554,       993,
   12.5844,      1039,
   12.6147,      1027,
    12.645,      1050,
   12.6754,      1030,
   12.7057,      1040,
    12.736,       968,
   12.7663,      1048,
   12.7967,      1111,
    12.827,      1023,
   12.8573,      1031,
   12.8877,      1063,
    12.918,      1027,
   12.9483,      1055,
   12.9786,      1062,
    13.009,      1001,
   13.0393,      1047,
   13.0696,      1141,
      13.1,      1059,
   13.1303,      1034,
   13.1606,       997,
   13.1909,      1022,
   13.2213,      1008,
   13.2516,      1081,
   13.2819,      1004,
   13.3123,      1027,
   13.3426,      1043,
   13.3729,      1054,
   13.4032,       955,
   13.4336,      1007,
   13.4639,      1040,
   13.4942,      1056,
   13.5245,      1012,
   13.5549,      1070,
   13.5852,      1011,
   13.6155,       961,
   13.6459,      1041,
   13.6762,      1049,
   13.7065,       990,
   13.7368,      1028,
   13.7672,      1048,
   13.7975,       981,
   13.8278,       924,
   13.8582,       979,
   13.8885,       920,
   13.9188,       973,
   13.9491,      1016,
   13.9795,       954,
   14.0098,      1011,
   14.0401,       948,
   14.0705,       943,
   14.1008,       993,
   14.1311,       976,
   14.1614,       909,
   14.1918,       993,
   14.2221,      1040,
   14.2524,      1071,
   14.2828,       984,
   14.3131,       988,
   14.3434,       966,
   14.3737,       949,
   14.4041,       925,
   14.4344,      1011,
   14.4647,       929,
   14.4951,       915,
   14.5254,       931,
   14.5557,       983,
    14.586,       874,
   14.6164,       905,
   14.6467,       955,
    14.677,       899,
   14.7073,       926,
   14.7377,       907,
    14.768,       904,
   14.7983,       988,
   14.8287,       963,
    14.859,       961,
   14.8893,       908,
   14.9196,       919,
     14.95,       972,
   14.9803,      1014,
   15.0106,       937,
    15.041,      1001,
   15.0713,       965,
   15.1016,       982,
   15.1319,       958,
   15.1623,       944,
   15.1926,       932,
   15.2229,       917,
   15.2533,       940,
   15.2836,       898,
   15.3139,       933,
   15.3442,       878,
   15.3746,       932,
   15.4049,       916,
   15.4352,       906,
   15.4656,       882,
   15.4959,       898,
   15.5262,       902,
   15.5565,       882,
   15.5869,       899,
   15.6172,       855,
   15.6475,       824,
   15.6778,       874,
   15.7082,       917,
   15.7385,       842,
   15.7688,       857,
   15.7992,       848,
   15.8295,       864,
   15.8598,       837,
   15.8901,       886,
   15.9205,       834,
   15.9508,       871,
   15.9811,       862,
   16.0115,       903,
   16.0418,       824,
   16.0721,       900,
   16.1024,       933,
   16.1328,       807,
   16.1631,       790,
   16.1934,       879,
   16.2238,       879,
   16.2541,       866,
   16.2844,       827,
   16.3147,       840,
   16.3451,       769,
   16.3754,       871,
   16.4057,       843,
   16.4361,       844,
   16.4664,       842,
   16.4967,       832,
    16.527,       863,
   16.5574,       886,
   16.5877,       879,
    16.618,       859,
   16.6483,       905,
   16.6787,       957,
    16.709,       972,
   16.7393,       986,
   16.7697,       887,
      16.8,       873,
   16.8303,       883,
   16.8606,       883,
    16.891,       803,
   16.9213,       810,
   16.9516,       858,
    16.982,       785,
   17.0123,       886,
   17.0426,       879,
   17.0729,       839,
   17.1033,       877,
   17.1336,       862,
   17.1639,       850,
   17.1943,       875,
   17.2246,       888,
   17.2549,       833,
   17.2852,       857,
   17.3156,       761,
   17.3459,       808,
   17.3762,       822,
   17.4066,       869,
   17.4369,       795,
   17.4672,       835,
   17.4975,       790,
   17.5279,       834,
   17.5582,       836,
   17.5885,       818,
   17.6188,       814,
   17.6492,       837,
   17.6795,       820,
   17.7098,       781,
   17.7402,       824,
   17.7705,       793,
   17.8008,       757,
   17.8311,       798,
   17.8615,       819,
   17.8918,       740,
   17.9221,       784,
   17.9525,       763,
   17.9828,       788,
   18.0131,       763,
   18.0434,       770,
   18.0738,       767,
   18.1041,       777,
   18.1344,       749,
   18.1648,       826,
   18.1951,       783,
   18.2254,       774,
   18.2557,       764,
   18.2861,       816,
   18.3164,       829,
   18.3467,       801,
   18.3771,       790,
   18.4074,       811,
   18.4377,       827,
    18.468,       773,
   18.4984,       754,
   18.5287,       760,
    18.559,       742,
   18.5893,       763,
   18.6197,       878,
     18.65,       747,
   18.6803,       733,
   18.7107,       758,
    18.741,       790,
   18.7713,       765,
   18.8016,       723,
    18.832,       767,
   18.8623,       807,
   18.8926,       766,
    18.923,       831,
   18.9533,       720,
   18.9836,       720,
   19.0139,       715,
   19.0443,       719,
   19.0746,       812,
   19.1049,       696,
   19.1353,       777,
   19.1656,       792,
   19.1959,       782,
   19.2262,       730,
   19.2566,       792,
   19.2869,       788,
   19.3172,       764,
   19.3476,       778,
   19.3779,       771,
   19.4082,       802,
   19.4385,       714,
   19.4689,       808,
   19.4992,       753,
   19.5295,       707,
   19.5599,       705,
   19.5902,       750,
   19.6205,       769,
   19.6508,       731,
   19.6812,       764,
   19.7115,       832,
   19.7418,       812,
   19.7721,       740,
   19.8025,       779,
   19.8328,       752,
   19.8631,       729,
   19.8935,       750,
   19.9238,       768,
   19.9541,       766,
   19.9844,       780,
   20.0148,       768,
   20.0451,       807,
   20.0754,       763,
   20.1058,       782,
   20.1361,       771,
   20.1664,       694,
   20.1967,       743,
   20.2271,       747,
   20.2574,       811,
   20.2877,       707,
   20.3181,       756,
   20.3484,       723,
   20.3787,       735,
    20.409,       664,
   20.4394,       782,
   20.4697,       740,
      20.5,       759,
   20.5304,       735,
   20.5607,       718,
    20.591,       721,
   20.6213,       775,
   20.6517,       780,
    20.682,       784,
   20.7123,       756,
   20.7426,       812,
    20.773,       769,
   20.8033,       753,
   20.8336,       723,
    20.864,       740,
   20.8943,       760,
   20.9246,       751,
   20.9549,       757,
   20.9853,       740,
   21.0156,       741,
   21.0459,       763,
   21.0763,       760,
   21.1066,       761,
   21.1369,       794,
   21.1672,       753,
   21.1976,       767,
   21.2279,       692,
   21.2582,       750,
   21.2886,       750,
   21.3189,       765,
   21.3492,       762,
   21.3795,       735,
   21.4099,       762,
   21.4402,       766,
   21.4705,       788,
   21.5009,       753,
   21.5312,       717,
   21.5615,       748,
   21.5918,       748,
   21.6222,       785,
   21.6525,       756,
   21.6828,       694,
   21.7131,       763,
   21.7435,       773,
   21.7738,       719,
   21.8041,       752,
   21.8345,       729,
   21.8648,       732,
   21.8951,       698,
   21.9254,       757,
   21.9558,       774,
   21.9861,       743,
   22.0164,       730,
   22.0468,       756,
   22.0771,       734,
   22.1074,       717,
   22.1377,       726,
   22.1681,       718,
   22.1984,       800,
   22.2287,       746,
   22.2591,       785,
   22.2894,       698,
   22.3197,       758,
     22.35,       688,
   22.3804,       803,
   22.4107,       733,
    22.441,       646,
   22.4714,       724,
   22.5017,       748,
    22.532,       711,
   22.5623,       782,
   22.5927,       750,
    22.623,       713,
   22.6533,       718,
   22.6836,       746,
    22.714,       749,
   22.7443,       749,
   22.7746,       748,
    22.805,       724,
   22.8353,       758,
   22.8656,       720,
   22.8959,       747,
   22.9263,       763,
   22.9566,       707,
   22.9869,       780,
   23.0173,       779,
   23.0476,       785,
   23.0779,       849,
   23.1082,       780,
   23.1386,       861,
   23.1689,       798,
   23.1992,       736,
   23.2296,       754,
   23.2599,       805,
   23.2902,       781,
   23.3205,       768,
   23.3509,       794,
   23.3812,       847,
   23.4115,       826,
   23.4419,       815,
   23.4722,       803,
   23.5025,       771,
   23.5328,       784,
   23.5632,       783,
   23.5935,       820,
   23.6238,       794,
   23.6541,       776,
   23.6845,       724,
   23.7148,       750,
   23.7451,       779,
   23.7755,       774,
   23.8058,       745,
   23.8361,       735,
   23.8664,       755,
   23.8968,       738,
   23.9271,       720,
   23.9574,       705,
   23.9878,       724,
   24.0181,       738,
   24.0484,       724,
   24.0787,       766,
   24.1091,       750,
   24.1394,       726,
   24.1697,       718,
   24.2001,       750,
   24.2304,       718,
   24.2607,       738,
    24.291,       666,
   24.3214,       713,
   24.3517,       738,
    24.382,       757,
   24.4124,       782,
   24.4427,       669,
    24.473,       779,
   24.5033,       748,
   24.5337,       752,
    24.564,       749,
   24.5943,       721,
   24.6246,       735,
    24.655,       731,
   24.6853,       754,
   24.7156,       740,
    24.746,       708,
   24.7763,       743,
   24.8066,       676,
   24.8369,       716,
   24.8673,       708,
   24.8976,       697,
   24.9279,       696,
   24.9583,       709,
   24.9886,       669,
   25.0189,       736,
   25.0492,       615,
   25.0796,       691,
   25.1099,       692,
   25.1402,       688,
   25.1706,       707,
   25.2009,       649,
   25.2312,       725,
   25.2615,       690,
   25.2919,       644,
   25.3222,       679,
   25.3525,       648,
   25.3829,       633,
   25.4132,       618,
   25.4435,       625,
   25.4738,       695,
   25.5042,       685,
   25.5345,       660,
   25.5648,       689,
   25.5952,       644,
   25.6255,       623,
   25.6558,       700,
   25.6861,       643,
   25.7165,       656,
   25.7468,       640,
   25.7771,       668,
   25.8074,       682,
   25.8378,       631,
   25.8681,       676,
   25.8984,       634,
   25.9288,       650,
   25.9591,       666,
   25.9894,       706,
   26.0197,       619,
   26.0501,       643,
   26.0804,       614,
   26.1107,       670,
   26.1411,       627,
   26.1714,       664,
   26.2017,       634,
    26.232,       665,
   26.2624,       679,
   26.2927,       647,
    26.323,       619,
   26.3534,       628,
   26.3837,       625,
    26.414,       630,
   26.4443,       661,
   26.4747,       636,
    26.505,       631,
   26.5353,       639,
   26.5657,       665,
    26.596,       607,
   26.6263,       707,
   26.6566,       626,
    26.687,       640,
   26.7173,       676,
   26.7476,       588,
   26.7779,       667,
   26.8083,       613,
   26.8386,       664,
   26.8689,       668,
   26.8993,       708,
   26.9296,       619,
   26.9599,       694,
   26.9902,       655,
   27.0206,       737,
   27.0509,       715,
   27.0812,       713,
   27.1116,       791,
   27.1419,       829,
   27.1722,       851,
   27.2025,       894,
   27.2329,       914,
   27.2632,       947,
   27.2935,       883,
   27.3239,       851,
   27.3542,       817,
   27.3845,       758,
   27.4148,       708,
   27.4452,       736,
   27.4755,       672,
   27.5058,       633,
   27.5362,       689,
   27.5665,       695,
   27.5968,       664,
   27.6271,       685,
   27.6575,       669,
   27.6878,       616,
   27.7181,       673,
   27.7484,       622,
   27.7788,       657,
   27.8091,       597,
   27.8394,       621,
   27.8698,       635,
   27.9001,       631,
   27.9304,       588,
   27.9607,       629,
   27.9911,       615,
   28.0214,       594,
   28.0517,       625,
   28.0821,       594,
   28.1124,       583,
   28.1427,       589,
    28.173,       606,
   28.2034,       626,
   28.2337,       580,
    28.264,       605,
   28.2944,       606,
   28.3247,       601,
    28.355,       613,
   28.3853,       599,
   28.4157,       570,
    28.446,       630,
   28.4763,       601,
   28.5067,       578,
    28.537,       579,
   28.5673,       600,
   28.5976,       607,
    28.628,       601,
   28.6583,       588,
   28.6886,       579,
   28.7189,       638,
   28.7493,       653,
   28.7796,       610,
   28.8099,       591,
   28.8403,       609,
   28.8706,       597,
   28.9009,       546,
   28.9312,       597,
   28.9616,       569,
   28.9919,       546,
   29.0222,       588,
   29.0526,       538,
   29.0829,       587,
   29.1132,       551,
   29.1435,       596,
   29.1739,       617,
   29.2042,       600,
   29.2345,       614,
   29.2649,       619,
   29.2952,       591,
   29.3255,       535,
   29.3558,       584,
   29.3862,       634,
   29.4165,       565,
   29.4468,       564,
   29.4772,       596,
   29.5075,       625,
   29.5378,       593,
   29.5681,       601,
   29.5985,       607,
   29.6288,       602,
   29.6591,       602,
   29.6894,       601,
   29.7198,       563,
   29.7501,       607,
   29.7804,       619,
   29.8108,       634,
   29.8411,       651,
   29.8714,       630,
   29.9017,       610,
   29.9321,       635,
   29.9624,       653,
   29.9927,       683,
   30.0231,       665,
   30.0534,       692,
   30.0837,       640,
    30.114,       696,
   30.1444,       729,
   30.1747,       764,
    30.205,       839,
   30.2354,       780,
   30.2657,       861,
    30.296,       917,
   30.3263,      1006,
   30.3567,      1105,
    30.387,      1253,
   30.4173,      1402,
   30.4477,      1682,
    30.478,      2097,
   30.5083,      2691,
   30.5386,      3166,
    30.569,      3444,
   30.5993,      3309,
   30.6296,      2932,
     30.66,      2323,
   30.6903,      1930,
   30.7206,      1622,
   30.7509,      1335,
   30.7813,      1218,
   30.8116,      1111,
   30.8419,      1027,
   30.8722,       903,
   30.9026,       839,
   30.9329,       842,
   30.9632,       832,
   30.9936,       802,
   31.0239,       743,
   31.0542,       820,
   31.0845,       801,
   31.1149,       806,
   31.1452,       776,
   31.1755,       719,
   31.2059,       764,
   31.2362,       751,
   31.2665,       713,
   31.2968,       740,
   31.3272,       828,
   31.3575,       789,
   31.3878,       773,
   31.4182,       849,
   31.4485,       860,
   31.4788,       934,
   31.5091,       955,
   31.5395,      1041,
   31.5698,      1094,
   31.6001,      1225,
   31.6305,      1289,
   31.6608,      1449,
   31.6911,      1652,
   31.7214,      1816,
   31.7518,      1706,
   31.7821,      1606,
   31.8124,      1508,
   31.8427,      1279,
   31.8731,      1151,
   31.9034,      1060,
   31.9337,       904,
   31.9641,       841,
   31.9944,       811,
   32.0247,       679,
    32.055,       702,
   32.0854,       730,
   32.1157,       681,
    32.146,       613,
   32.1764,       615,
   32.2067,       572,
    32.237,       593,
   32.2673,       600,
   32.2977,       554,
    32.328,       557,
   32.3583,       517,
   32.3887,       588,
    32.419,       560,
   32.4493,       538,
   32.4796,       564,
     32.51,       577,
   32.5403,       575,
   32.5706,       582,
    32.601,       531,
   32.6313,       549,
   32.6616,       561,
   32.6919,       511,
   32.7223,       524,
   32.7526,       508,
   32.7829,       510,
   32.8132,       527,
   32.8436,       532,
   32.8739,       481,
   32.9042,       518,
   32.9346,       498,
   32.9649,       502,
   32.9952,       498,
   33.0255,       514,
   33.0559,       543,
   33.0862,       506,
   33.1165,       512,
   33.1469,       505,
   33.1772,       500,
   33.2075,       504,
   33.2378,       510,
   33.2682,       465,
   33.2985,       525,
   33.3288,       515,
   33.3592,       509,
   33.3895,       489,
   33.4198,       472,
   33.4501,       500,
   33.4805,       505,
   33.5108,       490,
   33.5411,       524,
   33.5715,       505,
   33.6018,       509,
   33.6321,       503,
   33.6624,       488,
   33.6928,       545,
   33.7231,       493,
   33.7534,       513,
   33.7837,       513,
   33.8141,       527,
   33.8444,       541,
   33.8747,       517,
   33.9051,       521,
   33.9354,       519,
   33.9657,       511,
    33.996,       555,
   34.0264,       547,
   34.0567,       550,
    34.087,       502,
   34.1174,       535,
   34.1477,       550,
    34.178,       563,
   34.2083,       586,
   34.2387,       624,
    34.269,       688,
   34.2993,       697,
   34.3297,       747,
     34.36,       807,
   34.3903,       815,
   34.4206,       863,
    34.451,       869,
   34.4813,       947,
   34.5116,      1036,
    34.542,      1185,
   34.5723,      1265,
   34.6026,      1480,
   34.6329,      1710,
   34.6633,      2000,
   34.6936,      2329,
   34.7239,      2748,
   34.7542,      3031,
   34.7846,      3130,
   34.8149,      3095,
   34.8452,      3076,
   34.8756,      2931,
   34.9059,      2659,
   34.9362,      2384,
   34.9665,      2152,
   34.9969,      1842,
   35.0272,      1615,
   35.0575,      1335,
   35.0879,      1289,
   35.1182,      1089,
   35.1485,      1032,
   35.1788,       943,
   35.2092,       791,
   35.2395,       797,
   35.2698,       779,
   35.3002,       701,
   35.3305,       658,
   35.3608,       698,
   35.3911,       678,
   35.4215,       589,
   35.4518,       576,
   35.4821,       566,
   35.5125,       550,
   35.5428,       544,
   35.5731,       575,
   35.6034,       559,
   35.6338,       532,
   35.6641,       558,
   35.6944,       495,
   35.7248,       530,
   35.7551,       485,
   35.7854,       533,
   35.8157,       503,
   35.8461,       528,
   35.8764,       544,
   35.9067,       504,
    35.937,       469,
   35.9674,       527,
   35.9977,       551,
    36.028,       554,
   36.0584,       559,
   36.0887,       550,
    36.119,       509,
   36.1493,       500,
   36.1797,       532,
     36.21,       564,
   36.2403,       564,
   36.2707,       622,
    36.301,       560,
   36.3313,       537,
   36.3616,       558,
    36.392,       517,
   36.4223,       480,
   36.4526,       474,
    36.483,       523,
   36.5133,       478,
   36.5436,       467,
   36.5739,       460,
   36.6043,       477,
   36.6346,       454,
   36.6649,       449,
   36.6953,       419,
   36.7256,       437,
   36.7559,       451,
   36.7862,       416,
   36.8166,       486,
   36.8469,       455,
   36.8772,       464,
   36.9075,       472,
   36.9379,       465,
   36.9682,       467,
   36.9985,       496,
   37.0289,       523,
   37.0592,       475,
   37.0895,       542,
   37.1198,       518,
   37.1502,       524,
   37.1805,       533,
   37.2108,       504,
   37.2412,       564,
   37.2715,       500,
   37.3018,       504,
   37.3321,       491,
   37.3625,       464,
   37.3928,       511,
   37.4231,       552,
   37.4535,       503,
   37.4838,       446,
   37.5141,       482,
   37.5444,       475,
   37.5748,       462,
   37.6051,       528,
   37.6354,       518,
   37.6658,       535,
   37.6961,       515,
   37.7264,       489,
   37.7567,       476,
   37.7871,       472,
   37.8174,       462,
   37.8477,       482,
    37.878,       485,
   37.9084,       508,
   37.9387,       499,
    37.969,       514,
   37.9994,       516,
   38.0297,       481,
     38.06,       533,
   38.0903,       534,
   38.1207,       535,
    38.151,       562,
   38.1813,       589,
   38.2117,       622,
    38.242,       641,
   38.2723,       637,
   38.3026,       662,
    38.333,       647,
   38.3633,       655,
   38.3936,       705,
    38.424,       669,
   38.4543,       765,
   38.4846,       762,
   38.5149,       860,
   38.5453,       928,
   38.5756,      1082,
   38.6059,      1312,
   38.6363,      1465,
   38.6666,      1530,
   38.6969,      1458,
   38.7272,      1372,
   38.7576,      1265,
   38.7879,      1081,
   38.8182,       932,
   38.8485,       774,
   38.8789,       699,
   38.9092,       581,
   38.9395,       641,
   38.9699,       616,
   39.0002,       528,
   39.0305,       507,
   39.0608,       481,
   39.0912,       464,
   39.1215,       490,
   39.1518,       460,
   39.1822,       428,
   39.2125,       433,
   39.2428,       424,
   39.2731,       436,
   39.3035,       468,
   39.3338,       429,
   39.3641,       453,
   39.3945,       400,
   39.4248,       437,
   39.4551,       409,
   39.4854,       420,
   39.5158,       441,
   39.5461,       457,
   39.5764,       393,
   39.6068,       437,
   39.6371,       438,
   39.6674,       433,
   39.6977,       407,
   39.7281,       398,
   39.7584,       405,
   39.7887,       425,
    39.819,       451,
   39.8494,       434,
   39.8797,       411,
     39.91,       437,
   39.9404,       453,
   39.9707,       439,
    40.001,       415,
   40.0313,       411,
   40.0617,       421,
    40.092,       383,
   40.1223,       396,
   40.1527,       369,
    40.183,       471,
   40.2133,       424,
   40.2436,       404,
    40.274,       416,
   40.3043,       424,
   40.3346,       425,
    40.365,       384,
   40.3953,       430,
   40.4256,       427,
   40.4559,       418,
   40.4863,       451,
   40.5166,       441,
   40.5469,       402,
   40.5773,       419,
   40.6076,       438,
   40.6379,       440,
   40.6682,       395,
   40.6986,       451,
   40.7289,       435,
   40.7592,       422,
   40.7895,       420,
   40.8199,       412,
   40.8502,       447,
   40.8805,       422,
   40.9109,       409,
   40.9412,       419,
   40.9715,       414,
   41.0018,       396,
   41.0322,       403,
   41.0625,       404,
   41.0928,       420,
   41.1232,       422,
   41.1535,       451,
   41.1838,       438,
   41.2141,       448,
   41.2445,       449,
   41.2748,       448,
   41.3051,       416,
   41.3355,       421,
   41.3658,       385,
   41.3961,       443,
   41.4264,       403,
   41.4568,       403,
   41.4871,       398,
   41.5174,       489,
   41.5478,       415,
   41.5781,       488,
   41.6084,       482,
   41.6387,       428,
   41.6691,       428,
   41.6994,       450,
   41.7297,       479,
   41.7601,       449,
   41.7904,       491,
   41.8207,       492,
    41.851,       500,
   41.8814,       514,
   41.9117,       541,
    41.942,       519,
   41.9723,       562,
   42.0027,       610,
    42.033,       681,
   42.0633,       743,
   42.0937,       775,
    42.124,       902,
   42.1543,      1050,
   42.1846,      1020,
    42.215,      1061,
   42.2453,      1142,
   42.2756,       989,
    42.306,      1026,
   42.3363,       906,
   42.3666,       946,
   42.3969,       860,
   42.4273,       846,
   42.4576,       780,
   42.4879,       774,
   42.5183,       789,
   42.5486,       761,
   42.5789,       756,
   42.6092,       755,
   42.6396,       699,
   42.6699,       742,
   42.7002,       670,
   42.7306,       660,
   42.7609,       646,
   42.7912,       636,
   42.8215,       598,
   42.8519,       558,
   42.8822,       538,
   42.9125,       521,
   42.9428,       515,
   42.9732,       472,
   43.0035,       467,
   43.0338,       478,
   43.0642,       443,
   43.0945,       483,
   43.1248,       465,
   43.1551,       471,
   43.1855,       455,
   43.2158,       446,
   43.2461,       456,
   43.2765,       496,
   43.3068,       511,
   43.3371,       488,
   43.3674,       507,
   43.3978,       503,
   43.4281,       520,
   43.4584,       575,
   43.4888,       634,
   43.5191,       593,
   43.5494,       645,
   43.5797,       662,
   43.6101,       630,
   43.6404,       626,
   43.6707,       614,
   43.7011,       564,
   43.7314,       549,
   43.7617,       548,
    43.792,       539,
   43.8224,       495,
   43.8527,       549,
    43.883,       534,
   43.9133,       527,
   43.9437,       487,
    43.974,       513,
   44.0043,       530,
   44.0347,       537,
    44.065,       581,
   44.0953,       607,
   44.1256,       637,
    44.156,       715,
   44.1863,       778,
   44.2166,       977,
    44.247,      1172,
   44.2773,      1108,
   44.3076,      1181,
   44.3379,      1115,
   44.3683,      1052,
   44.3986,       948,
   44.4289,       823,
   44.4593,       746,
   44.4896,       682,
   44.5199,       677,
   44.5502,       596,
   44.5806,       588,
   44.6109,       594,
   44.6412,       606,
   44.6716,       630,
   44.7019,       607,
   44.7322,       614,
   44.7625,       646,
   44.7929,       683,
   44.8232,       679,
   44.8535,       752,
   44.8838,       838,
   44.9142,       844,
   44.9445,       853,
   44.9748,       838,
   45.0052,       848,
   45.0355,       868,
   45.0658,       857,
   45.0961,       816,
   45.1265,       867,
   45.1568,       783,
   45.1871,       795,
   45.2175,       707,
   45.2478,       672,
   45.2781,       647,
   45.3084,       617,
   45.3388,       524,
   45.3691,       541,
   45.3994,       474,
   45.4298,       498,
   45.4601,       514,
   45.4904,       413,
   45.5207,       412,
   45.5511,       392,
   45.5814,       414,
   45.6117,       378,
   45.6421,       410,
   45.6724,       374,
   45.7027,       387,
    45.733,       391,
   45.7634,       383,
   45.7937,       365,
    45.824,       342,
   45.8543,       381,
   45.8847,       366,
    45.915,       353,
   45.9453,       366,
   45.9757,       402,
    46.006,       378,
   46.0363,       369,
   46.0666,       382,
    46.097,       365,
   46.1273,       379,
   46.1576,       421,
    46.188,       429,
   46.2183,       377,
   46.2486,       416,
   46.2789,       425,
   46.3093,       398,
   46.3396,       412,
   46.3699,       443,
   46.4003,       373,
   46.4306,       409,
   46.4609,       437,
   46.4912,       497,
   46.5216,       488,
   46.5519,       488,
   46.5822,       541,
   46.6126,       602,
   46.6429,       565,
   46.6732,       697,
   46.7035,       651,
   46.7339,       699,
   46.7642,       697,
   46.7945,       706,
   46.8249,       686,
   46.8552,       661,
   46.8855,       679,
   46.9158,       644,
   46.9462,       597,
   46.9765,       632,
   47.0068,       622,
   47.0371,       553,
   47.0675,       517,
   47.0978,       479,
   47.1281,       491,
   47.1585,       465,
   47.1888,       423,
   47.2191,       431,
   47.2494,       420,
   47.2798,       422,
   47.3101,       423,
   47.3404,       380,
   47.3708,       378,
   47.4011,       411,
   47.4314,       421,
   47.4617,       358,
   47.4921,       385,
   47.5224,       397,
   47.5527,       408,
   47.5831,       346,
   47.6134,       386,
   47.6437,       369,
    47.674,       387,
   47.7044,       404,
   47.7347,       349,
    47.765,       384,
   47.7954,       383,
   47.8257,       401,
    47.856,       417,
   47.8863,       387,
   47.9167,       374,
    47.947,       409,
   47.9773,       425,
   48.0076,       437,
    48.038,       433,
   48.0683,       447,
   48.0986,       429,
    48.129,       456,
   48.1593,       488,
   48.1896,       535,
   48.2199,       559,
   48.2503,       571,
   48.2806,       542,
   48.3109,       541,
   48.3413,       451,
   48.3716,       491,
   48.4019,       443,
   48.4322,       458,
   48.4626,       391,
   48.4929,       401,
   48.5232,       386,
   48.5536,       408,
   48.5839,       385,
   48.6142,       378,
   48.6445,       410,
   48.6749,       384,
   48.7052,       357,
   48.7355,       341,
   48.7659,       381,
   48.7962,       346,
   48.8265,       353,
   48.8568,       363,
   48.8872,       365,
   48.9175,       340,
   48.9478,       331,
   48.9781,       328,
   49.0085,       367,
   49.0388,       356,
   49.0691,       345,
   49.0995,       323,
   49.1298,       351,
   49.1601,       330,
   49.1904,       328,
   49.2208,       328,
   49.2511,       363,
   49.2814,       338,
   49.3118,       337,
   49.3421,       347,
   49.3724,       392,
   49.4027,       350,
   49.4331,       335,
   49.4634,       349,
   49.4937,       352,
   49.5241,       347,
   49.5544,       328,
   49.5847,       347,
    49.615,       354,
   49.6454,       340,
   49.6757,       352,
    49.706,       336,
   49.7364,       345,
   49.7667,       338,
    49.797,       385,
   49.8273,       359,
   49.8577,       336,
    49.888,       393,
   49.9183,       351,
   49.9486,       383,
    49.979,       368,
   50.0093,       385,
   50.0396,       440,
     50.07,       431,
   50.1003,       410,
   50.1306,       483,
   50.1609,       484,
   50.1913,       559,
   50.2216,       603,
   50.2519,       715,
   50.2823,       704,
   50.3126,       613,
   50.3429,       657,
   50.3732,       577,
   50.4036,       559,
   50.4339,       560,
   50.4642,       490,
   50.4946,       461,
   50.5249,       450,
   50.5552,       402,
   50.5855,       408,
   50.6159,       377,
   50.6462,       412,
   50.6765,       405,
   50.7069,       370,
   50.7372,       384,
   50.7675,       383,
   50.7978,       360,
   50.8282,       376,
   50.8585,       383,
   50.8888,       394,
   50.9191,       409,
   50.9495,       410,
   50.9798,       410,
   51.0101,       437,
   51.0405,       455,
   51.0708,       475,
   51.1011,       496,
   51.1314,       521,
   51.1618,       525,
   51.1921,       539,
   51.2224,       540,
   51.2528,       587,
   51.2831,       586,
   51.3134,       594,
   51.3437,       603,
   51.3741,       548,
   51.4044,       515,
   51.4347,       538,
   51.4651,       520,
   51.4954,       512,
   51.5257,       482,
    51.556,       459,
   51.5864,       399,
   51.6167,       438,
    51.647,       428,
   51.6774,       369,
   51.7077,       400,
    51.738,       372,
   51.7683,       406,
   51.7987,       365,
    51.829,       402,
   51.8593,       339,
   51.8897,       325,
     51.92,       346,
   51.9503,       360,
   51.9806,       353,
    52.011,       340,
   52.0413,       374,
   52.0716,       340,
   52.1019,       338,
   52.1323,       342,
   52.1626,       347,
   52.1929,       364,
   52.2233,       344,
   52.2536,       356,
   52.2839,       345,
   52.3142,       319,
   52.3446,       352,
   52.3749,       347,
   52.4052,       338,
   52.4356,       345,
   52.4659,       368,
   52.4962,       332,
   52.5265,       347,
   52.5569,       374,
   52.5872,       356,
   52.6175,       340,
   52.6479,       334,
   52.6782,       318,
   52.7085,       389,
   52.7388,       348,
   52.7692,       351,
   52.7995,       362,
   52.8298,       371,
   52.8602,       358,
   52.8905,       340,
   52.9208,       358,
   52.9511,       346,
   52.9815,       382,
   53.0118,       352,
   53.0421,       364,
   53.0724,       365,
   53.1028,       408,
   53.1331,       366,
   53.1634,       384,
   53.1938,       411,
   53.2241,       358,
   53.2544,       410,
   53.2847,       393,
   53.3151,       411,
   53.3454,       473,
   53.3757,       451,
   53.4061,       445,
   53.4364,       491,
   53.4667,       515,
    53.497,       496,
   53.5274,       597,
   53.5577,       610,
    53.588,       580,
   53.6184,       712,
   53.6487,       754,
    53.679,       859,
   53.7093,      1041,
   53.7397,      1159,
     53.77,      1291,
   53.8003,      1393,
   53.8307,      1311,
    53.861,      1273,
   53.8913,      1127,
   53.9216,      1074,
    53.952,       956,
   53.9823,       849,
   54.0126,       718,
   54.0429,       659,
   54.0733,       615,
   54.1036,       501,
   54.1339,       494,
   54.1643,       441,
   54.1946,       422,
   54.2249,       413,
   54.2552,       399,
   54.2856,       413,
   54.3159,       374,
   54.3462,       359,
   54.3766,       357,
   54.4069,       397,
   54.4372,       380,
   54.4675,       342,
   54.4979,       358,
   54.5282,       370,
   54.5585,       413,
   54.5889,       350,
   54.6192,       340,
   54.6495,       367,
   54.6798,       346,
   54.7102,       328,
   54.7405,       371,
   54.7708,       339,
   54.8012,       351,
   54.8315,       366,
   54.8618,       361,
   54.8921,       330,
   54.9225,       342,
   54.9528,       358,
   54.9831,       324,
   55.0134,       315,
   55.0438,       372,
   55.0741,       346,
   55.1044,       321,
   55.1348,       343,
   55.1651,       362,
   55.1954,       346,
   55.2257,       324,
   55.2561,       366,
   55.2864,       356,
   55.3167,       333,
   55.3471,       333,
   55.3774,       358,
   55.4077,       343,
    55.438,       383,
   55.4684,       347,
   55.4987,       360,
    55.529,       342,
   55.5594,       354,
   55.5897,       359,
     55.62,       405,
   55.6503,       373,
   55.6807,       371,
    55.711,       372,
   55.7413,       357,
   55.7717,       362,
    55.802,       368,
   55.8323,       452,
   55.8626,       374,
    55.893,       418,
   55.9233,       432,
   55.9536,       386,
   55.9839,       444,
   56.0143,       426,
   56.0446,       464,
   56.0749,       483,
   56.1053,       468,
   56.1356,       478,
   56.1659,       450,
   56.1962,       444,
   56.2266,       487,
   56.2569,       542,
   56.2872,       497,
   56.3176,       531,
   56.3479,       542,
   56.3782,       554,
   56.4085,       557,
   56.4389,       599,
   56.4692,       586,
   56.4995,       624,
   56.5299,       698,
   56.5602,       765,
   56.5905,       802,
   56.6208,       776,
   56.6512,       829,
   56.6815,       847,
   56.7118,       889,
   56.7422,       954,
   56.7725,       978,
   56.8028,       896,
   56.8331,       927,
   56.8635,       932,
   56.8938,       917,
   56.9241,       906,
   56.9544,       832,
   56.9848,       776,
   57.0151,       744,
   57.0454,       664,
   57.0758,       619,
   57.1061,       646,
   57.1364,       562,
   57.1667,       533,
   57.1971,       535,
   57.2274,       522,
   57.2577,       476,
   57.2881,       468,
   57.3184,       461,
   57.3487,       464,
    57.379,       491,
   57.4094,       497,
   57.4397,       453,
     57.47,       455,
   57.5004,       489,
   57.5307,       452,
    57.561,       492,
   57.5913,       502,
   57.6217,       507,
    57.652,       532,
   57.6823,       551,
   57.7127,       546,
    57.743,       599,
   57.7733,       542,
   57.8036,       584,
    57.834,       608,
   57.8643,       597,
   57.8946,       597,
    57.925,       557,
   57.9553,       561,
   57.9856,       516,
   58.0159,       562,
   58.0463,       493,
   58.0766,       505,
   58.1069,       472,
   58.1372,       448,
   58.1676,       478,
   58.1979,       411,
   58.2282,       427,
   58.2586,       447,
   58.2889,       416,
   58.3192,       398,
   58.3495,       420,
   58.3799,       393,
   58.4102,       438,
   58.4405,       394,
   58.4709,       398,
   58.5012,       404,
   58.5315,       435,
   58.5618,       400,
   58.5922,       395,
   58.6225,       433,
   58.6528,       414,
   58.6832,       420,
   58.7135,       417,
   58.7438,       431,
   58.7741,       450,
   58.8045,       475,
   58.8348,       482,
   58.8651,       486,
   58.8955,       523,
   58.9258,       543,
   58.9561,       606,
   58.9864,       660,
   59.0168,       663,
   59.0471,       647,
   59.0774,       678,
   59.1077,       647,
   59.1381,       564,
   59.1684,       545,
   59.1987,       508,
   59.2291,       518,
   59.2594,       423,
   59.2897,       428,
     59.32,       435,
   59.3504,       385,
   59.3807,       406,
    59.411,       363,
   59.4414,       351,
   59.4717,       339,
    59.502,       333,
   59.5323,       314,
   59.5627,       321,
    59.593,       348,
   59.6233,       312,
   59.6537,       321,
    59.684,       303,
   59.7143,       312,
   59.7446,       321,
    59.775,       313,
   59.8053,       317,
   59.8356,       309,
    59.866,       322,
   59.8963,       336,
   59.9266,       344,
   59.9569,       322,
   59.9873,       311,
   60.0176,       310,
   60.0479,       299,
   60.0782,       322,
   60.1086,       310,
   60.1389,       295,
   60.1692,       298,
   60.1996,       307,
   60.2299,       318,
   60.2602,       329,
   60.2905,       320,
   60.3209,       314,
   60.3512,       292,
   60.3815,       281,
   60.4119,       287,
   60.4422,       309,
   60.4725,       295,
   60.5028,       317,
   60.5332,       328,
   60.5635,       297,
   60.5938,       310,
   60.6242,       289,
   60.6545,       330,
   60.6848,       298,
   60.7151,       273,
   60.7455,       341,
   60.7758,       333,
   60.8061,       317,
   60.8365,       367,
   60.8668,       291,
   60.8971,       327,
   60.9274,       319,
   60.9578,       297,
   60.9881,       332,
   61.0184,       308,
   61.0487,       339,
   61.0791,       352,
   61.1094,       331,
   61.1397,       364,
   61.1701,       331,
   61.2004,       373,
   61.2307,       355,
    61.261,       341,
   61.2914,       333,
   61.3217,       328,
    61.352,       322,
   61.3824,       361,
   61.4127,       361,
    61.443,       379,
   61.4733,       366,
   61.5037,       409,
    61.534,       409,
   61.5643,       437,
   61.5947,       524,
    61.625,       576,
   61.6553,       607,
   61.6856,       683,
    61.716,       696,
   61.7463,       677,
   61.7766,       605,
    61.807,       615,
   61.8373,       557,
   61.8676,       515,
   61.8979,       528,
   61.9283,       486,
   61.9586,       435,
   61.9889,       412,
   62.0192,       403,
   62.0496,       405,
   62.0799,       368,
   62.1102,       393,
   62.1406,       357,
   62.1709,       416,
   62.2012,       415,
   62.2315,       413,
   62.2619,       442,
   62.2922,       418,
   62.3225,       485,
   62.3529,       488,
   62.3832,       475,
   62.4135,       487,
   62.4438,       495,
   62.4742,       442,
   62.5045,       437,
   62.5348,       449,
   62.5652,       405,
   62.5955,       373,
   62.6258,       372,
   62.6561,       309,
   62.6865,       320,
   62.7168,       320,
   62.7471,       315,
   62.7775,       318,
   62.8078,       285,
   62.8381,       321,
   62.8684,       286,
   62.8988,       280,
   62.9291,       282,
   62.9594,       301,
   62.9898,       282,
   63.0201,       286,
   63.0504,       287,
   63.0807,       278,
   63.1111,       269,
   63.1414,       295,
   63.1717,       266,
    63.202,       257,
   63.2324,       280,
   63.2627,       252,
    63.293,       280,
   63.3234,       266,
   63.3537,       236,
    63.384,       288,
   63.4143,       278,
   63.4447,       281,
    63.475,       290,
   63.5053,       270,
   63.5357,       276,
    63.566,       275,
   63.5963,       278,
   63.6266,       279,
    63.657,       282,
   63.6873,       271,
   63.7176,       301,
    63.748,       286,
   63.7783,       262,
   63.8086,       276,
   63.8389,       292,
   63.8693,       276,
   63.8996,       275,
   63.9299,       253,
   63.9603,       244,
   63.9906,       245,
   64.0209,       255,
   64.0512,       265,
   64.0816,       267,
   64.1119,       255,
   64.1422,       291,
   64.1725,       247,
   64.2029,       260,
   64.2332,       280,
   64.2635,       223,
   64.2939,       254,
   64.3242,       239,
   64.3545,       255,
   64.3848,       263,
   64.4152,       261,
   64.4455,       257,
   64.4758,       248,
   64.5062,       275,
   64.5365,       248,
   64.5668,       243,
   64.5971,       263,
   64.6275,       286,
   64.6578,       230,
   64.6881,       224,
   64.7185,       241,
   64.7488,       245,
   64.7791,       252,
   64.8094,       256,
   64.8398,       251,
   64.8701,       221,
   64.9004,       220,
   64.9308,       222,
   64.9611,       229,
   64.9914,       239,
   65.0217,       228,
   65.0521,       230,
   65.0824,       232,
   65.1127,       232,
    65.143,       230,
   65.1734,       242,
   65.2037,       233,
    65.234,       226,
   65.2644,       249,
   65.2947,       229,
    65.325,       229,
   65.3553,       216,
   65.3857,       228,
    65.416,       253,
   65.4463,       230,
   65.4767,       257,
    65.507,       231,
   65.5373,       232,
   65.5676,       235,
    65.598,       260,
   65.6283,       236,
   65.6586,       244,
    65.689,       237,
   65.7193,       255,
   65.7496,       257,
   65.7799,       265,
   65.8103,       232,
   65.8406,       229,
   65.8709,       244,
   65.9013,       246,
   65.9316,       238,
   65.9619,       233,
   65.9922,       245,
   66.0226,       276,
   66.0529,       242,
   66.0832,       274,
   66.1135,       236,
   66.1439,       257,
   66.1742,       281,
   66.2045,       250,
   66.2349,       219,
   66.2652,       241,
   66.2955,       263,
   66.3258,       243,
   66.3562,       246,
   66.3865,       228,
   66.4168,       251,
   66.4472,       247,
   66.4775,       248,
   66.5078,       258,
   66.5381,       237,
   66.5685,       241,
   66.5988,       248,
   66.6291,       222,
   66.6595,       258,
   66.6898,       245,
   66.7201,       263,
   66.7504,       247,
   66.7808,       263,
   66.8111,       248,
   66.8414,       251,
   66.8718,       243,
   66.9021,       216,
   66.9324,       262,
   66.9627,       260,
   66.9931,       217,
   67.0234,       237,
   67.0537,       237,
    67.084,       235,
   67.1144,       227,
   67.1447,       254,
    67.175,       244,
   67.2054,       255,
   67.2357,       259,
    67.266,       255,
   67.2963,       273,
   67.3267,       261,
    67.357,       237,
   67.3873,       228,
   67.4177,       239,
    67.448,       236,
   67.4783,       283,
   67.5086,       264,
    67.539,       277,
   67.5693,       269,
   67.5996,       239,
     67.63,       299,
   67.6603,       262,
   67.6906,       252,
   67.7209,       247,
   67.7513,       281,
   67.7816,       276,
   67.8119,       269,
   67.8423,       274,
   67.8726,       275,
   67.9029,       309,
   67.9332,       294,
   67.9636,       280,
   67.9939,       265,
   68.0242,       274,
   68.0546,       260,
   68.0849,       266,
   68.1152,       255,
   68.1455,       254,
   68.1759,       250,
   68.2062,       256,
   68.2365,       230,
   68.2668,       262,
   68.2972,       234,
   68.3275,       226,
   68.3578,       239,
   68.3882,       234,
   68.4185,       244,
   68.4488,       245,
   68.4791,       223,
   68.5095,       259,
   68.5398,       255,
   68.5701,       257,
   68.6005,       274,
   68.6308,       273,
   68.6611,       276,
   68.6914,       276,
   68.7218,       315,
   68.7521,       297,
   68.7824,       285,
   68.8128,       268,
   68.8431,       288,
   68.8734,       258,
   68.9037,       258,
   68.9341,       306,
   68.9644,       294,
   68.9947,       280,
   69.0251,       266,
   69.0554,       251,
   69.0857,       265,
    69.116,       289,
   69.1464,       288,
   69.1767,       255,
    69.207,       282,
   69.2373,       256,
   69.2677,       252,
    69.298,       265,
   69.3283,       255,
   69.3587,       257,
    69.389,       248,
   69.4193,       244,
   69.4496,       253,
     69.48,       242,
   69.5103,       258,
   69.5406,       231,
    69.571,       249,
   69.6013,       205,
   69.6316,       215,
   69.6619,       261,
   69.6923,       248,
   69.7226,       227,
   69.7529,       252,
   69.7833,       227,
   69.8136,       245,
   69.8439,       272,
   69.8742,       241,
   69.9046,       230,
   69.9349,       231,
   69.9652,       275,
   69.9956,       268,
