;RAW4.00
[RawHeader]
Date=04/21/2019
EstimatedTotalTime=2311.13
FurtherDQLReading=0
HardwareIndicator=65519
MeasuredTotalTime=2311.13
MeasurementFlag=1
NumberOfMeasuredRanges=1
NumberOfRanges=1
Time=15:46:26

[VarInfo]
Type=USER
Flags=0
Value=Bruker Service

[VarInfo]
Type=SAMPLEID
Flags=0
Value=Commander Sample ID

[VarInfo]
Type=COMMENT
Flags=0
Value=

[VarInfo]
Type=UTF
Flags=0
Value=

[VarInfo]
Type=CREATOR
Flags=0
Value=BrmlToV4Converter

[VarInfo]
Type=CREATOR_VERSION
Flags=0
Value=7.3.0.0

[HardwareConfiguration]
AbsorptionFactor=9999
ActivateAbsorber=0
Alpha1=1.78897
Alpha2=1.79285
AlphaAverage=1.79026
AlphaRatio=0.5
Analyzer=0
Anode=Co
AntiScatteringSlit=9999
BeamOpticsFlags=0
Beta=1.62079
BetaRelativeIntensity=0
DeactivateAbsorber=0
DetectorSlit=9999
DivergenceSlit=1
GoniometerControl=0
GoniometerDiameter=282
GoniometerModel=256
GoniometerStage=7
Monochromator=0
NearSampleSlit=9999
PrimarySollerSlit=9999
SampleChanger=0
SecondSollerSlit=9999
SynchronousAxis=0
ThinFilmAttachment=9999
WaveUnit=A

[RangeHeader]
ActuallyUsedLambda=1.79026
AdditionalDetectorMask=257
DataRecordLength=4
DelayTime=0
DisplayPlaneNumber=0
EstimatedScanTime=2311
ExtraParametersMask=0
GeneratorCurrent=10
GeneratorVoltage=30
Increment=0.0303281
Increment3=0
NumberOfCompletedData=2144
NumberOfCounts=1
NumberOfDetectors=0
NumberOfDrives=2
NumberOfEncoderDrives=0
NumberOfMeasuredData=2144
NumberOfVaryingParameters=0
RangeStartTime=0
RotationSpeed=1
ScanMode=1
ScanType=Locked Coupled
SimulatedMeasConditions=0
SlitChangerIn=0
SmootingWidth=0
Start=5.00234
Steps=2144
SynchronousRotation=0
Time=165

[VarInfo]
Type=PSD_DISCRIM
Flags=0
Value=0.11;0.25

[PSD]
ActualTwoTheta=9999
FirstUsedChannel=0
FixedPSD=0
PSDOpening=5.00414
PSDType=5

[Drive]
DriveFlags=1
DriveName=2Theta
DriveNumber=2
DriveOffset=0
OffsetIndex=0
OscillationAmplitude=0
OscillationSpeed=0
StartPosition=5.00234

[Drive]
DriveFlags=1
DriveName=Theta
DriveNumber=1
DriveOffset=0
OffsetIndex=0
OscillationAmplitude=0
OscillationSpeed=0
StartPosition=2.50117

[Data]
     Angle,       PSD,
   5.00234,      8477,
   5.03267,      8390,
     5.063,      8449,
   5.09333,      8294,
   5.12365,      8044,
   5.15398,      7848,
   5.18431,      7953,
   5.21464,      7893,
   5.24497,      7736,
   5.27529,      7706,
   5.30562,      7460,
   5.33595,      7360,
   5.36628,      7286,
   5.39661,      7261,
   5.42694,      7154,
   5.45726,      6953,
   5.48759,      6673,
   5.51792,      6823,
   5.54825,      6684,
   5.57858,      6547,
    5.6089,      6511,
   5.63923,      6318,
   5.66956,      6132,
   5.69989,      5986,
   5.73022,      5777,
   5.76055,      5521,
   5.79087,      5472,
    5.8212,      5406,
   5.85153,      5265,
   5.88186,      5066,
   5.91219,      5165,
   5.94251,      5093,
   5.97284,      5062,
   6.00317,      4717,
    6.0335,      4848,
   6.06383,      4753,
   6.09415,      4529,
   6.12448,      4579,
   6.15481,      4584,
   6.18514,      4608,
   6.21547,      4527,
    6.2458,      4420,
   6.27612,      4276,
   6.30645,      4296,
   6.33678,      4106,
   6.36711,      4177,
   6.39744,      4153,
   6.42776,      4016,
   6.45809,      4059,
   6.48842,      3893,
   6.51875,      4058,
   6.54908,      3890,
    6.5794,      3828,
   6.60973,      3802,
   6.64006,      3807,
   6.67039,      3626,
   6.70072,      3759,
   6.73105,      3500,
   6.76137,      3539,
    6.7917,      3517,
   6.82203,      3403,
   6.85236,      3357,
   6.88269,      3302,
   6.91301,      3184,
   6.94334,      3252,
   6.97367,      3128,
     7.004,      3105,
   7.03433,      3153,
   7.06466,      3013,
   7.09498,      3000,
   7.12531,      2974,
   7.15564,      2918,
   7.18597,      2918,
    7.2163,      2887,
   7.24662,      2817,
   7.27695,      2882,
   7.30728,      2785,
   7.33761,      2765,
   7.36794,      2727,
   7.39826,      2719,
   7.42859,      2800,
   7.45892,      2589,
   7.48925,      2547,
   7.51958,      2654,
   7.54991,      2530,
   7.58023,      2533,
   7.61056,      2540,
   7.64089,      2414,
   7.67122,      2550,
   7.70155,      2454,
   7.73187,      2381,
    7.7622,      2319,
   7.79253,      2399,
   7.82286,      2381,
   7.85319,      2289,
   7.88352,      2256,
   7.91384,      2326,
   7.94417,      2133,
    7.9745,      2282,
   8.00483,      2237,
   8.03516,      2182,
   8.06548,      2152,
   8.09581,      2175,
   8.12614,      2034,
   8.15647,      1992,
    8.1868,      2090,
   8.21712,      2056,
   8.24745,      2007,
   8.27778,      2024,
   8.30811,      2043,
   8.33844,      1999,
   8.36877,      1962,
   8.39909,      1949,
   8.42942,      1926,
   8.45975,      1908,
   8.49008,      1728,
   8.52041,      1778,
   8.55073,      1770,
   8.58106,      1876,
   8.61139,      1885,
   8.64172,      1733,
   8.67205,      1788,
   8.70237,      1836,
    8.7327,      1659,
   8.76303,      1665,
   8.79336,      1643,
   8.82369,      1658,
   8.85402,      1623,
   8.88434,      1628,
   8.91467,      1670,
     8.945,      1569,
   8.97533,      1642,
   9.00566,      1587,
   9.03598,      1519,
   9.06631,      1556,
   9.09664,      1527,
   9.12697,      1631,
    9.1573,      1528,
   9.18763,      1575,
   9.21795,      1496,
   9.24828,      1484,
   9.27861,      1485,
   9.30894,      1480,
   9.33927,      1508,
   9.36959,      1444,
   9.39992,      1399,
   9.43025,      1451,
   9.46058,      1426,
   9.49091,      1404,
   9.52123,      1384,
   9.55156,      1339,
   9.58189,      1341,
   9.61222,      1436,
   9.64255,      1391,
   9.67288,      1309,
    9.7032,      1383,
   9.73353,      1378,
   9.76386,      1384,
   9.79419,      1294,
   9.82452,      1358,
   9.85484,      1318,
   9.88517,      1259,
    9.9155,      1315,
   9.94583,      1280,
   9.97616,      1296,
   10.0065,      1385,
   10.0368,      1329,
   10.0671,      1322,
   10.0975,      1203,
   10.1278,      1270,
   10.1581,      1315,
   10.1885,      1248,
   10.2188,      1264,
   10.2491,      1211,
   10.2794,      1298,
   10.3098,      1318,
   10.3401,      1188,
   10.3704,      1290,
   10.4008,      1193,
   10.4311,      1227,
   10.4614,      1250,
   10.4917,      1276,
   10.5221,      1194,
   10.5524,      1274,
   10.5827,      1247,
    10.613,      1213,
   10.6434,      1195,
   10.6737,      1187,
    10.704,      1140,
   10.7344,      1210,
   10.7647,      1215,
    10.795,      1265,
   10.8253,      1212,
   10.8557,      1126,
    10.886,      1191,
   10.9163,      1198,
   10.9467,      1180,
    10.977,      1142,
   11.0073,      1170,
   11.0376,      1115,
    11.068,      1186,
   11.0983,      1140,
   11.1286,      1062,
    11.159,      1229,
   11.1893,      1136,
   11.2196,      1165,
   11.2499,      1116,
   11.2803,      1088,
   11.3106,      1107,
   11.3409,      1108,
   11.3713,      1030,
   11.4016,      1079,
   11.4319,      1091,
   11.4622,      1164,
   11.4926,      1095,
   11.5229,      1063,
   11.5532,      1078,
   11.5835,      1144,
   11.6139,      1029,
   11.6442,      1111,
   11.6745,      1072,
   11.7049,      1102,
   11.7352,      1113,
   11.7655,      1067,
   11.7958,      1064,
   11.8262,      1021,
   11.8565,      1122,
   11.8868,      1044,
   11.9172,      1078,
   11.9475,      1138,
   11.9778,      1091,
   12.0081,      1031,
   12.0385,       986,
   12.0688,      1014,
   12.0991,      1054,
   12.1295,      1004,
   12.1598,      1060,
   12.1901,      1064,
   12.2204,      1009,
   12.2508,       997,
   12.2811,       974,
   12.3114,      1086,
   12.3418,      1056,
   12.3721,      1081,
   12.4024,       975,
   12.4327,      1021,
   12.4631,      1013,
   12.4934,      1037,
   12.5237,      1024,
    12.554,      1031,
   12.5844,       956,
   12.6147,      1029,
    12.645,      1027,
   12.6754,       967,
   12.7057,       900,
    12.736,       975,
   12.7663,      1026,
   12.7967,       979,
    12.827,       984,
   12.8573,       995,
   12.8877,       943,
    12.918,       919,
   12.9483,       930,
   12.9786,       965,
    13.009,       967,
   13.0393,       974,
   13.0696,       944,
      13.1,       960,
   13.1303,       995,
   13.1606,       953,
   13.1909,       997,
   13.2213,       971,
   13.2516,       955,
   13.2819,       931,
   13.3123,       989,
   13.3426,       966,
   13.3729,       957,
   13.4032,       979,
   13.4336,       954,
   13.4639,       997,
   13.4942,      1020,
   13.5245,       913,
   13.5549,       953,
   13.5852,       907,
   13.6155,       948,
   13.6459,       942,
   13.6762,       924,
   13.7065,       991,
   13.7368,       984,
   13.7672,       964,
   13.7975,       886,
   13.8278,       903,
   13.8582,       870,
   13.8885,       939,
   13.9188,       955,
   13.9491,       869,
   13.9795,       912,
   14.0098,       894,
   14.0401,       909,
   14.0705,       930,
   14.1008,       886,
   14.1311,       897,
   14.1614,       938,
   14.1918,       938,
   14.2221,       862,
   14.2524,       862,
   14.2828,       885,
   14.3131,       902,
   14.3434,       865,
   14.3737,       930,
   14.4041,       943,
   14.4344,       918,
   14.4647,       856,
   14.4951,       885,
   14.5254,       924,
   14.5557,       940,
    14.586,       836,
   14.6164,       859,
   14.6467,       870,
    14.677,       855,
   14.7073,       860,
   14.7377,       905,
    14.768,       896,
   14.7983,       785,
   14.8287,       884,
    14.859,       819,
   14.8893,       828,
   14.9196,       835,
     14.95,       866,
   14.9803,       882,
   15.0106,       818,
    15.041,       827,
   15.0713,       886,
   15.1016,       846,
   15.1319,       873,
   15.1623,       847,
   15.1926,       857,
   15.2229,       859,
   15.2533,       841,
   15.2836,       845,
   15.3139,       882,
   15.3442,       850,
   15.3746,       847,
   15.4049,       777,
   15.4352,       885,
   15.4656,       806,
   15.4959,       848,
   15.5262,       823,
   15.5565,       821,
   15.5869,       861,
   15.6172,       842,
   15.6475,       788,
   15.6778,       822,
   15.7082,       835,
   15.7385,       801,
   15.7688,       869,
   15.7992,       769,
   15.8295,       788,
   15.8598,       811,
   15.8901,       795,
   15.9205,       806,
   15.9508,       804,
   15.9811,       793,
   16.0115,       840,
   16.0418,       824,
   16.0721,       775,
   16.1024,       711,
   16.1328,       815,
   16.1631,       830,
   16.1934,       816,
   16.2238,       790,
   16.2541,       771,
   16.2844,       789,
   16.3147,       788,
   16.3451,       757,
   16.3754,       781,
   16.4057,       836,
   16.4361,       810,
   16.4664,       796,
   16.4967,       813,
    16.527,       768,
   16.5574,       761,
   16.5877,       750,
    16.618,       912,
   16.6483,       848,
   16.6787,       911,
    16.709,       861,
   16.7393,       785,
   16.7697,       830,
      16.8,       823,
   16.8303,       840,
   16.8606,       787,
    16.891,       783,
   16.9213,       774,
   16.9516,       735,
    16.982,       799,
   17.0123,       796,
   17.0426,       803,
   17.0729,       817,
   17.1033,       761,
   17.1336,       793,
   17.1639,       816,
   17.1943,       796,
   17.2246,       697,
   17.2549,       732,
   17.2852,       699,
   17.3156,       750,
   17.3459,       802,
   17.3762,       788,
   17.4066,       721,
   17.4369,       764,
   17.4672,       730,
   17.4975,       694,
   17.5279,       738,
   17.5582,       809,
   17.5885,       690,
   17.6188,       723,
   17.6492,       748,
   17.6795,       697,
   17.7098,       742,
   17.7402,       740,
   17.7705,       741,
   17.8008,       730,
   17.8311,       735,
   17.8615,       660,
   17.8918,       744,
   17.9221,       711,
   17.9525,       722,
   17.9828,       731,
   18.0131,       721,
   18.0434,       738,
   18.0738,       721,
   18.1041,       745,
   18.1344,       726,
   18.1648,       716,
   18.1951,       720,
   18.2254,       696,
   18.2557,       772,
   18.2861,       729,
   18.3164,       700,
   18.3467,       675,
   18.3771,       807,
   18.4074,       736,
   18.4377,       704,
    18.468,       720,
   18.4984,       678,
   18.5287,       727,
    18.559,       700,
   18.5893,       710,
   18.6197,       719,
     18.65,       707,
   18.6803,       693,
   18.7107,       701,
    18.741,       750,
   18.7713,       691,
   18.8016,       691,
    18.832,       702,
   18.8623,       707,
   18.8926,       703,
    18.923,       697,
   18.9533,       700,
   18.9836,       712,
   19.0139,       715,
   19.0443,       685,
   19.0746,       727,
   19.1049,       663,
   19.1353,       729,
   19.1656,       690,
   19.1959,       715,
   19.2262,       713,
   19.2566,       665,
   19.2869,       664,
   19.3172,       685,
   19.3476,       662,
   19.3779,       708,
   19.4082,       688,
   19.4385,       693,
   19.4689,       612,
   19.4992,       654,
   19.5295,       703,
   19.5599,       676,
   19.5902,       715,
   19.6205,       660,
   19.6508,       694,
   19.6812,       686,
   19.7115,       695,
   19.7418,       699,
   19.7721,       673,
   19.8025,       704,
   19.8328,       720,
   19.8631,       693,
   19.8935,       672,
   19.9238,       697,
   19.9541,       669,
   19.9844,       678,
   20.0148,       645,
   20.0451,       646,
   20.0754,       679,
   20.1058,       673,
   20.1361,       689,
   20.1664,       674,
   20.1967,       700,
   20.2271,       693,
   20.2574,       641,
   20.2877,       676,
   20.3181,       694,
   20.3484,       670,
   20.3787,       661,
    20.409,       675,
   20.4394,       712,
   20.4697,       707,
      20.5,       634,
   20.5304,       711,
   20.5607,       639,
    20.591,       702,
   20.6213,       645,
   20.6517,       649,
    20.682,       643,
   20.7123,       719,
   20.7426,       702,
    20.773,       690,
   20.8033,       674,
   20.8336,       666,
    20.864,       681,
   20.8943,       707,
   20.9246,       695,
   20.9549,       646,
   20.9853,       630,
   21.0156,       648,
   21.0459,       677,
   21.0763,       690,
   21.1066,       702,
   21.1369,       649,
   21.1672,       708,
   21.1976,       657,
   21.2279,       697,
   21.2582,       646,
   21.2886,       670,
   21.3189,       646,
   21.3492,       684,
   21.3795,       636,
   21.4099,       650,
   21.4402,       674,
   21.4705,       687,
   21.5009,       660,
   21.5312,       632,
   21.5615,       651,
   21.5918,       685,
   21.6222,       623,
   21.6525,       652,
   21.6828,       661,
   21.7131,       675,
   21.7435,       685,
   21.7738,       661,
   21.8041,       665,
   21.8345,       679,
   21.8648,       701,
   21.8951,       632,
   21.9254,       659,
   21.9558,       635,
   21.9861,       677,
   22.0164,       734,
   22.0468,       619,
   22.0771,       702,
   22.1074,       697,
   22.1377,       676,
   22.1681,       679,
   22.1984,       687,
   22.2287,       698,
   22.2591,       682,
   22.2894,       627,
   22.3197,       668,
     22.35,       679,
   22.3804,       677,
   22.4107,       674,
    22.441,       652,
   22.4714,       669,
   22.5017,       642,
    22.532,       674,
   22.5623,       612,
   22.5927,       638,
    22.623,       685,
   22.6533,       660,
   22.6836,       668,
    22.714,       667,
   22.7443,       727,
   22.7746,       630,
    22.805,       678,
   22.8353,       670,
   22.8656,       661,
   22.8959,       633,
   22.9263,       687,
   22.9566,       686,
   22.9869,       669,
   23.0173,       650,
   23.0476,       712,
   23.0779,       663,
   23.1082,       677,
   23.1386,       675,
   23.1689,       685,
   23.1992,       634,
   23.2296,       595,
   23.2599,       698,
   23.2902,       706,
   23.3205,       693,
   23.3509,       675,
   23.3812,       689,
   23.4115,       678,
   23.4419,       625,
   23.4722,       618,
   23.5025,       609,
   23.5328,       634,
   23.5632,       641,
   23.5935,       594,
   23.6238,       653,
   23.6541,       637,
   23.6845,       661,
   23.7148,       616,
   23.7451,       628,
   23.7755,       628,
   23.8058,       615,
   23.8361,       648,
   23.8664,       599,
   23.8968,       648,
   23.9271,       552,
   23.9574,       629,
   23.9878,       602,
   24.0181,       580,
   24.0484,       603,
   24.0787,       621,
   24.1091,       690,
   24.1394,       632,
   24.1697,       649,
   24.2001,       622,
   24.2304,       618,
   24.2607,       598,
    24.291,       668,
   24.3214,       633,
   24.3517,       611,
    24.382,       602,
   24.4124,       651,
   24.4427,       655,
    24.473,       715,
   24.5033,       644,
   24.5337,       677,
    24.564,       651,
   24.5943,       623,
   24.6246,       614,
    24.655,       630,
   24.6853,       606,
   24.7156,       594,
    24.746,       589,
   24.7763,       594,
   24.8066,       613,
   24.8369,       610,
   24.8673,       584,
   24.8976,       641,
   24.9279,       591,
   24.9583,       604,
   24.9886,       567,
   25.0189,       540,
   25.0492,       579,
   25.0796,       572,
   25.1099,       614,
   25.1402,       599,
   25.1706,       555,
   25.2009,       578,
   25.2312,       591,
   25.2615,       551,
   25.2919,       569,
   25.3222,       565,
   25.3525,       578,
   25.3829,       612,
   25.4132,       579,
   25.4435,       524,
   25.4738,       559,
   25.5042,       578,
   25.5345,       588,
   25.5648,       557,
   25.5952,       583,
   25.6255,       599,
   25.6558,       588,
   25.6861,       562,
   25.7165,       540,
   25.7468,       556,
   25.7771,       558,
   25.8074,       539,
   25.8378,       559,
   25.8681,       564,
   25.8984,       556,
   25.9288,       606,
   25.9591,       590,
   25.9894,       581,
   26.0197,       561,
   26.0501,       541,
   26.0804,       527,
   26.1107,       573,
   26.1411,       564,
   26.1714,       577,
   26.2017,       509,
    26.232,       533,
   26.2624,       564,
   26.2927,       546,
    26.323,       548,
   26.3534,       570,
   26.3837,       565,
    26.414,       540,
   26.4443,       573,
   26.4747,       547,
    26.505,       551,
   26.5353,       569,
   26.5657,       548,
    26.596,       539,
   26.6263,       567,
   26.6566,       562,
    26.687,       525,
   26.7173,       539,
   26.7476,       545,
   26.7779,       545,
   26.8083,       574,
   26.8386,       573,
   26.8689,       553,
   26.8993,       593,
   26.9296,       536,
   26.9599,       577,
   26.9902,       524,
   27.0206,       622,
   27.0509,       631,
   27.0812,       633,
   27.1116,       644,
   27.1419,       645,
   27.1722,       697,
   27.2025,       661,
   27.2329,       655,
   27.2632,       640,
   27.2935,       607,
   27.3239,       617,
   27.3542,       567,
   27.3845,       540,
   27.4148,       531,
   27.4452,       601,
   27.4755,       598,
   27.5058,       545,
   27.5362,       546,
   27.5665,       571,
   27.5968,       571,
   27.6271,       571,
   27.6575,       647,
   27.6878,       574,
   27.7181,       537,
   27.7484,       526,
   27.7788,       541,
   27.8091,       540,
   27.8394,       565,
   27.8698,       534,
   27.9001,       547,
   27.9304,       505,
   27.9607,       510,
   27.9911,       509,
   28.0214,       533,
   28.0517,       570,
   28.0821,       531,
   28.1124,       554,
   28.1427,       505,
    28.173,       553,
   28.2034,       549,
   28.2337,       544,
    28.264,       506,
   28.2944,       500,
   28.3247,       505,
    28.355,       535,
   28.3853,       484,
   28.4157,       497,
    28.446,       495,
   28.4763,       540,
   28.5067,       570,
    28.537,       544,
   28.5673,       538,
   28.5976,       554,
    28.628,       562,
   28.6583,       545,
   28.6886,       510,
   28.7189,       528,
   28.7493,       492,
   28.7796,       500,
   28.8099,       509,
   28.8403,       562,
   28.8706,       521,
   28.9009,       503,
   28.9312,       506,
   28.9616,       504,
   28.9919,       532,
   29.0222,       502,
   29.0526,       557,
   29.0829,       511,
   29.1132,       533,
   29.1435,       493,
   29.1739,       523,
   29.2042,       486,
   29.2345,       534,
   29.2649,       497,
   29.2952,       486,
   29.3255,       525,
   29.3558,       487,
   29.3862,       553,
   29.4165,       494,
   29.4468,       480,
   29.4772,       461,
   29.5075,       550,
   29.5378,       590,
   29.5681,       575,
   29.5985,       503,
   29.6288,       552,
   29.6591,       517,
   29.6894,       577,
   29.7198,       556,
   29.7501,       559,
   29.7804,       588,
   29.8108,       594,
   29.8411,       559,
   29.8714,       611,
   29.9017,       594,
   29.9321,       634,
   29.9624,       674,
   29.9927,       637,
   30.0231,       664,
   30.0534,       719,
   30.0837,       735,
    30.114,       754,
   30.1444,       790,
   30.1747,       825,
    30.205,       886,
   30.2354,       968,
   30.2657,      1043,
    30.296,      1172,
   30.3263,      1305,
   30.3567,      1549,
    30.387,      1946,
   30.4173,      2395,
   30.4477,      3067,
    30.478,      3657,
   30.5083,      4275,
   30.5386,      4409,
    30.569,      3891,
   30.5993,      3411,
   30.6296,      2788,
     30.66,      2228,
   30.6903,      1773,
   30.7206,      1468,
   30.7509,      1356,
   30.7813,      1134,
   30.8116,      1033,
   30.8419,      1028,
   30.8722,       885,
   30.9026,       923,
   30.9329,       814,
   30.9632,       788,
   30.9936,       778,
   31.0239,       823,
   31.0542,       810,
   31.0845,       755,
   31.1149,       743,
   31.1452,       742,
   31.1755,       728,
   31.2059,       758,
   31.2362,       735,
   31.2665,       809,
   31.2968,       764,
   31.3272,       824,
   31.3575,       873,
   31.3878,       901,
   31.4182,       925,
   31.4485,      1014,
   31.4788,      1014,
   31.5091,      1254,
   31.5395,      1291,
   31.5698,      1465,
   31.6001,      1697,
   31.6305,      1896,
   31.6608,      2110,
   31.6911,      2065,
   31.7214,      2116,
   31.7518,      1833,
   31.7821,      1670,
   31.8124,      1390,
   31.8427,      1303,
   31.8731,      1115,
   31.9034,       944,
   31.9337,       898,
   31.9641,       793,
   31.9944,       767,
   32.0247,       746,
    32.055,       670,
   32.0854,       652,
   32.1157,       636,
    32.146,       586,
   32.1764,       567,
   32.2067,       554,
    32.237,       507,
   32.2673,       556,
   32.2977,       543,
    32.328,       523,
   32.3583,       505,
   32.3887,       485,
    32.419,       513,
   32.4493,       456,
   32.4796,       522,
     32.51,       487,
   32.5403,       535,
   32.5706,       493,
    32.601,       478,
   32.6313,       484,
   32.6616,       429,
   32.6919,       492,
   32.7223,       470,
   32.7526,       488,
   32.7829,       451,
   32.8132,       462,
   32.8436,       455,
   32.8739,       475,
   32.9042,       460,
   32.9346,       429,
   32.9649,       490,
   32.9952,       453,
   33.0255,       423,
   33.0559,       435,
   33.0862,       484,
   33.1165,       454,
   33.1469,       460,
   33.1772,       427,
   33.2075,       482,
   33.2378,       448,
   33.2682,       428,
   33.2985,       432,
   33.3288,       435,
   33.3592,       454,
   33.3895,       399,
   33.4198,       437,
   33.4501,       432,
   33.4805,       438,
   33.5108,       457,
   33.5411,       441,
   33.5715,       472,
   33.6018,       424,
   33.6321,       440,
   33.6624,       466,
   33.6928,       476,
   33.7231,       430,
   33.7534,       488,
   33.7837,       436,
   33.8141,       459,
   33.8444,       466,
   33.8747,       434,
   33.9051,       454,
   33.9354,       419,
   33.9657,       488,
    33.996,       461,
   34.0264,       444,
   34.0567,       469,
    34.087,       494,
   34.1174,       467,
   34.1477,       451,
    34.178,       460,
   34.2083,       495,
   34.2387,       512,
    34.269,       528,
   34.2993,       616,
   34.3297,       629,
     34.36,       620,
   34.3903,       636,
   34.4206,       675,
    34.451,       736,
   34.4813,       798,
   34.5116,       825,
    34.542,       968,
   34.5723,      1078,
   34.6026,      1213,
   34.6329,      1311,
   34.6633,      1602,
   34.6936,      1750,
   34.7239,      1864,
   34.7542,      1927,
   34.7846,      1852,
   34.8149,      1744,
   34.8452,      1731,
   34.8756,      1592,
   34.9059,      1449,
   34.9362,      1294,
   34.9665,      1134,
   34.9969,      1026,
   35.0272,       858,
   35.0575,       817,
   35.0879,       737,
   35.1182,       683,
   35.1485,       658,
   35.1788,       629,
   35.2092,       599,
   35.2395,       532,
   35.2698,       527,
   35.3002,       534,
   35.3305,       530,
   35.3608,       481,
   35.3911,       452,
   35.4215,       455,
   35.4518,       477,
   35.4821,       437,
   35.5125,       441,
   35.5428,       465,
   35.5731,       417,
   35.6034,       425,
   35.6338,       439,
   35.6641,       480,
   35.6944,       430,
   35.7248,       412,
   35.7551,       424,
   35.7854,       443,
   35.8157,       468,
   35.8461,       475,
   35.8764,       434,
   35.9067,       465,
    35.937,       480,
   35.9674,       462,
   35.9977,       431,
    36.028,       476,
   36.0584,       463,
   36.0887,       438,
    36.119,       465,
   36.1493,       468,
   36.1797,       496,
     36.21,       538,
   36.2403,       583,
   36.2707,       529,
    36.301,       522,
   36.3313,       527,
   36.3616,       476,
    36.392,       445,
   36.4223,       457,
   36.4526,       393,
    36.483,       435,
   36.5133,       441,
   36.5436,       391,
   36.5739,       401,
   36.6043,       410,
   36.6346,       449,
   36.6649,       427,
   36.6953,       387,
   36.7256,       387,
   36.7559,       436,
   36.7862,       398,
   36.8166,       374,
   36.8469,       442,
   36.8772,       437,
   36.9075,       475,
   36.9379,       465,
   36.9682,       493,
   36.9985,       441,
   37.0289,       437,
   37.0592,       444,
   37.0895,       481,
   37.1198,       437,
   37.1502,       457,
   37.1805,       465,
   37.2108,       475,
   37.2412,       426,
   37.2715,       410,
   37.3018,       451,
   37.3321,       405,
   37.3625,       379,
   37.3928,       443,
   37.4231,       400,
   37.4535,       424,
   37.4838,       412,
   37.5141,       455,
   37.5444,       478,
   37.5748,       413,
   37.6051,       426,
   37.6354,       464,
   37.6658,       447,
   37.6961,       449,
   37.7264,       473,
   37.7567,       436,
   37.7871,       458,
   37.8174,       424,
   37.8477,       464,
    37.878,       432,
   37.9084,       481,
   37.9387,       433,
    37.969,       462,
   37.9994,       558,
   38.0297,       486,
     38.06,       540,
   38.0903,       568,
   38.1207,       651,
    38.151,       661,
   38.1813,       676,
   38.2117,       666,
    38.242,       674,
   38.2723,       718,
   38.3026,       696,
    38.333,       699,
   38.3633,       769,
   38.3936,       758,
    38.424,       801,
   38.4543,       889,
   38.4846,       997,
   38.5149,      1183,
   38.5453,      1444,
   38.5756,      1665,
   38.6059,      1868,
   38.6363,      1922,
   38.6666,      1835,
   38.6969,      1610,
   38.7272,      1337,
   38.7576,      1216,
   38.7879,      1012,
   38.8182,       880,
   38.8485,       769,
   38.8789,       705,
   38.9092,       601,
   38.9395,       624,
   38.9699,       566,
   39.0002,       547,
   39.0305,       503,
   39.0608,       507,
   39.0912,       439,
   39.1215,       435,
   39.1518,       421,
   39.1822,       422,
   39.2125,       426,
   39.2428,       428,
   39.2731,       400,
   39.3035,       405,
   39.3338,       391,
   39.3641,       408,
   39.3945,       387,
   39.4248,       384,
   39.4551,       400,
   39.4854,       376,
   39.5158,       371,
   39.5461,       371,
   39.5764,       405,
   39.6068,       359,
   39.6371,       400,
   39.6674,       392,
   39.6977,       422,
   39.7281,       390,
   39.7584,       352,
   39.7887,       394,
    39.819,       354,
   39.8494,       403,
   39.8797,       383,
     39.91,       361,
   39.9404,       399,
   39.9707,       398,
    40.001,       404,
   40.0313,       391,
   40.0617,       379,
    40.092,       378,
   40.1223,       372,
   40.1527,       396,
    40.183,       361,
   40.2133,       352,
   40.2436,       387,
    40.274,       353,
   40.3043,       368,
   40.3346,       348,
    40.365,       380,
   40.3953,       413,
   40.4256,       360,
   40.4559,       371,
   40.4863,       361,
   40.5166,       379,
   40.5469,       384,
   40.5773,       403,
   40.6076,       390,
   40.6379,       368,
   40.6682,       396,
   40.6986,       367,
   40.7289,       365,
   40.7592,       384,
   40.7895,       374,
   40.8199,       393,
   40.8502,       376,
   40.8805,       377,
   40.9109,       371,
   40.9412,       364,
   40.9715,       334,
   41.0018,       388,
   41.0322,       383,
   41.0625,       378,
   41.0928,       408,
   41.1232,       384,
   41.1535,       384,
   41.1838,       372,
   41.2141,       425,
   41.2445,       409,
   41.2748,       404,
   41.3051,       357,
   41.3355,       385,
   41.3658,       410,
   41.3961,       383,
   41.4264,       414,
   41.4568,       407,
   41.4871,       371,
   41.5174,       390,
   41.5478,       373,
   41.5781,       401,
   41.6084,       401,
   41.6387,       447,
   41.6691,       470,
   41.6994,       418,
   41.7297,       444,
   41.7601,       439,
   41.7904,       481,
   41.8207,       507,
    41.851,       496,
   41.8814,       538,
   41.9117,       596,
    41.942,       640,
   41.9723,       672,
   42.0027,       749,
    42.033,       863,
   42.0633,       986,
   42.0937,      1058,
    42.124,      1156,
   42.1543,      1220,
   42.1846,      1213,
    42.215,      1229,
   42.2453,      1210,
   42.2756,      1163,
    42.306,      1003,
   42.3363,       962,
   42.3666,       855,
   42.3969,       810,
   42.4273,       773,
   42.4576,       753,
   42.4879,       689,
   42.5183,       678,
   42.5486,       685,
   42.5789,       641,
   42.6092,       624,
   42.6396,       544,
   42.6699,       567,
   42.7002,       570,
   42.7306,       542,
   42.7609,       523,
   42.7912,       509,
   42.8215,       498,
   42.8519,       436,
   42.8822,       454,
   42.9125,       423,
   42.9428,       433,
   42.9732,       444,
   43.0035,       428,
   43.0338,       444,
   43.0642,       434,
   43.0945,       435,
   43.1248,       436,
   43.1551,       417,
   43.1855,       439,
   43.2158,       397,
   43.2461,       457,
   43.2765,       431,
   43.3068,       481,
   43.3371,       517,
   43.3674,       574,
   43.3978,       539,
   43.4281,       566,
   43.4584,       657,
   43.4888,       725,
   43.5191,       683,
   43.5494,       689,
   43.5797,       602,
   43.6101,       672,
   43.6404,       593,
   43.6707,       604,
   43.7011,       560,
   43.7314,       559,
   43.7617,       529,
    43.792,       509,
   43.8224,       527,
   43.8527,       436,
    43.883,       490,
   43.9133,       526,
   43.9437,       528,
    43.974,       534,
   44.0043,       609,
   44.0347,       669,
    44.065,       715,
   44.0953,       713,
   44.1256,       857,
    44.156,      1050,
   44.1863,      1176,
   44.2166,      1463,
    44.247,      1490,
   44.2773,      1476,
   44.3076,      1313,
   44.3379,      1234,
   44.3683,      1077,
   44.3986,       917,
   44.4289,       819,
   44.4593,       774,
   44.4896,       711,
   44.5199,       679,
   44.5502,       658,
   44.5806,       628,
   44.6109,       627,
   44.6412,       643,
   44.6716,       658,
   44.7019,       675,
   44.7322,       724,
   44.7625,       785,
   44.7929,       844,
   44.8232,       940,
   44.8535,       960,
   44.8838,      1014,
   44.9142,       983,
   44.9445,      1044,
   44.9748,      1038,
   45.0052,       985,
   45.0355,       980,
   45.0658,      1029,
   45.0961,      1002,
   45.1265,       952,
   45.1568,       855,
   45.1871,       798,
   45.2175,       755,
   45.2478,       698,
   45.2781,       642,
   45.3084,       535,
   45.3388,       504,
   45.3691,       499,
   45.3994,       463,
   45.4298,       480,
   45.4601,       440,
   45.4904,       422,
   45.5207,       396,
   45.5511,       400,
   45.5814,       393,
   45.6117,       393,
   45.6421,       364,
   45.6724,       373,
   45.7027,       358,
    45.733,       366,
   45.7634,       364,
   45.7937,       347,
    45.824,       348,
   45.8543,       346,
   45.8847,       345,
    45.915,       357,
   45.9453,       312,
   45.9757,       372,
    46.006,       326,
   46.0363,       330,
   46.0666,       349,
    46.097,       335,
   46.1273,       354,
   46.1576,       387,
    46.188,       368,
   46.2183,       359,
   46.2486,       353,
   46.2789,       347,
   46.3093,       345,
   46.3396,       395,
   46.3699,       379,
   46.4003,       360,
   46.4306,       392,
   46.4609,       374,
   46.4912,       413,
   46.5216,       394,
   46.5519,       451,
   46.5822,       453,
   46.6126,       453,
   46.6429,       491,
   46.6732,       490,
   46.7035,       514,
   46.7339,       473,
   46.7642,       524,
   46.7945,       473,
   46.8249,       553,
   46.8552,       481,
   46.8855,       445,
   46.9158,       403,
   46.9462,       422,
   46.9765,       435,
   47.0068,       418,
   47.0371,       464,
   47.0675,       386,
   47.0978,       393,
   47.1281,       375,
   47.1585,       343,
   47.1888,       405,
   47.2191,       344,
   47.2494,       359,
   47.2798,       366,
   47.3101,       375,
   47.3404,       350,
   47.3708,       326,
   47.4011,       359,
   47.4314,       333,
   47.4617,       305,
   47.4921,       342,
   47.5224,       320,
   47.5527,       323,
   47.5831,       349,
   47.6134,       340,
   47.6437,       386,
    47.674,       350,
   47.7044,       345,
   47.7347,       347,
    47.765,       357,
   47.7954,       387,
   47.8257,       359,
    47.856,       408,
   47.8863,       343,
   47.9167,       320,
    47.947,       390,
   47.9773,       370,
   48.0076,       436,
    48.038,       431,
   48.0683,       466,
   48.0986,       511,
    48.129,       547,
   48.1593,       543,
   48.1896,       580,
   48.2199,       561,
   48.2503,       559,
   48.2806,       551,
   48.3109,       514,
   48.3413,       455,
   48.3716,       462,
   48.4019,       412,
   48.4322,       427,
   48.4626,       433,
   48.4929,       371,
   48.5232,       383,
   48.5536,       379,
   48.5839,       374,
   48.6142,       349,
   48.6445,       368,
   48.6749,       352,
   48.7052,       365,
   48.7355,       333,
   48.7659,       346,
   48.7962,       301,
   48.8265,       358,
   48.8568,       288,
   48.8872,       324,
   48.9175,       316,
   48.9478,       318,
   48.9781,       328,
   49.0085,       286,
   49.0388,       277,
   49.0691,       346,
   49.0995,       307,
   49.1298,       312,
   49.1601,       314,
   49.1904,       338,
   49.2208,       303,
   49.2511,       297,
   49.2814,       325,
   49.3118,       304,
   49.3421,       314,
   49.3724,       307,
   49.4027,       324,
   49.4331,       301,
   49.4634,       304,
   49.4937,       354,
   49.5241,       302,
   49.5544,       314,
   49.5847,       339,
    49.615,       296,
   49.6454,       320,
   49.6757,       292,
    49.706,       293,
   49.7364,       324,
   49.7667,       340,
    49.797,       356,
   49.8273,       339,
   49.8577,       327,
    49.888,       351,
   49.9183,       390,
   49.9486,       391,
    49.979,       390,
   50.0093,       403,
   50.0396,       416,
     50.07,       465,
   50.1003,       498,
   50.1306,       556,
   50.1609,       588,
   50.1913,       632,
   50.2216,       749,
   50.2519,       735,
   50.2823,       744,
   50.3126,       677,
   50.3429,       664,
   50.3732,       576,
   50.4036,       538,
   50.4339,       494,
   50.4642,       422,
   50.4946,       393,
   50.5249,       427,
   50.5552,       402,
   50.5855,       365,
   50.6159,       375,
   50.6462,       368,
   50.6765,       357,
   50.7069,       364,
   50.7372,       337,
   50.7675,       341,
   50.7978,       324,
   50.8282,       329,
   50.8585,       327,
   50.8888,       352,
   50.9191,       349,
   50.9495,       393,
   50.9798,       383,
   51.0101,       409,
   51.0405,       395,
   51.0708,       409,
   51.1011,       432,
   51.1314,       416,
   51.1618,       436,
   51.1921,       461,
   51.2224,       407,
   51.2528,       464,
   51.2831,       467,
   51.3134,       462,
   51.3437,       440,
   51.3741,       420,
   51.4044,       436,
   51.4347,       389,
   51.4651,       395,
   51.4954,       389,
   51.5257,       352,
    51.556,       364,
   51.5864,       335,
   51.6167,       345,
    51.647,       342,
   51.6774,       347,
   51.7077,       337,
    51.738,       334,
   51.7683,       286,
   51.7987,       320,
    51.829,       312,
   51.8593,       352,
   51.8897,       299,
     51.92,       328,
   51.9503,       302,
   51.9806,       294,
    52.011,       304,
   52.0413,       298,
   52.0716,       311,
   52.1019,       326,
   52.1323,       314,
   52.1626,       281,
   52.1929,       279,
   52.2233,       276,
   52.2536,       329,
   52.2839,       316,
   52.3142,       311,
   52.3446,       297,
   52.3749,       296,
   52.4052,       307,
   52.4356,       303,
   52.4659,       317,
   52.4962,       308,
   52.5265,       299,
   52.5569,       345,
   52.5872,       305,
   52.6175,       295,
   52.6479,       294,
   52.6782,       320,
   52.7085,       325,
   52.7388,       337,
   52.7692,       340,
   52.7995,       353,
   52.8298,       357,
   52.8602,       362,
   52.8905,       335,
   52.9208,       318,
   52.9511,       368,
   52.9815,       385,
   53.0118,       361,
   53.0421,       371,
   53.0724,       394,
   53.1028,       394,
   53.1331,       410,
   53.1634,       391,
   53.1938,       450,
   53.2241,       439,
   53.2544,       464,
   53.2847,       476,
   53.3151,       535,
   53.3454,       489,
   53.3757,       540,
   53.4061,       536,
   53.4364,       565,
   53.4667,       611,
    53.497,       622,
   53.5274,       625,
   53.5577,       725,
    53.588,       792,
   53.6184,       910,
   53.6487,      1109,
    53.679,      1280,
   53.7093,      1459,
   53.7397,      1708,
     53.77,      1686,
   53.8003,      1587,
   53.8307,      1602,
    53.861,      1422,
   53.8913,      1261,
   53.9216,      1131,
    53.952,       900,
   53.9823,       835,
   54.0126,       774,
   54.0429,       602,
   54.0733,       547,
   54.1036,       506,
   54.1339,       491,
   54.1643,       462,
   54.1946,       448,
   54.2249,       438,
   54.2552,       406,
   54.2856,       366,
   54.3159,       414,
   54.3462,       397,
   54.3766,       391,
   54.4069,       385,
   54.4372,       404,
   54.4675,       376,
   54.4979,       367,
   54.5282,       350,
   54.5585,       336,
   54.5889,       354,
   54.6192,       316,
   54.6495,       355,
   54.6798,       328,
   54.7102,       320,
   54.7405,       319,
   54.7708,       352,
   54.8012,       337,
   54.8315,       336,
   54.8618,       340,
   54.8921,       328,
   54.9225,       347,
   54.9528,       292,
   54.9831,       321,
   55.0134,       288,
   55.0438,       317,
   55.0741,       350,
   55.1044,       324,
   55.1348,       334,
   55.1651,       347,
   55.1954,       299,
   55.2257,       359,
   55.2561,       317,
   55.2864,       322,
   55.3167,       324,
   55.3471,       323,
   55.3774,       315,
   55.4077,       324,
    55.438,       320,
   55.4684,       290,
   55.4987,       341,
    55.529,       349,
   55.5594,       317,
   55.5897,       347,
     55.62,       327,
   55.6503,       356,
   55.6807,       353,
    55.711,       323,
   55.7413,       339,
   55.7717,       390,
    55.802,       355,
   55.8323,       374,
   55.8626,       356,
    55.893,       375,
   55.9233,       371,
   55.9536,       403,
   55.9839,       418,
   56.0143,       398,
   56.0446,       433,
   56.0749,       396,
   56.1053,       396,
   56.1356,       397,
   56.1659,       436,
   56.1962,       459,
   56.2266,       478,
   56.2569,       461,
   56.2872,       462,
   56.3176,       463,
   56.3479,       562,
   56.3782,       560,
   56.4085,       541,
   56.4389,       602,
   56.4692,       558,
   56.4995,       688,
   56.5299,       709,
   56.5602,       720,
   56.5905,       731,
   56.6208,       847,
   56.6512,       936,
   56.6815,       932,
   56.7118,       977,
   56.7422,       938,
   56.7725,       977,
   56.8028,      1044,
   56.8331,      1060,
   56.8635,      1018,
   56.8938,       936,
   56.9241,       832,
   56.9544,       828,
   56.9848,       738,
   57.0151,       717,
   57.0454,       664,
   57.0758,       562,
   57.1061,       567,
   57.1364,       530,
   57.1667,       519,
   57.1971,       493,
   57.2274,       495,
   57.2577,       482,
   57.2881,       430,
   57.3184,       432,
   57.3487,       445,
    57.379,       433,
   57.4094,       390,
   57.4397,       418,
     57.47,       421,
   57.5004,       377,
   57.5307,       449,
    57.561,       376,
   57.5913,       405,
   57.6217,       415,
    57.652,       427,
   57.6823,       460,
   57.7127,       435,
    57.743,       437,
   57.7733,       473,
   57.8036,       453,
    57.834,       468,
   57.8643,       436,
   57.8946,       413,
    57.925,       443,
   57.9553,       419,
   57.9856,       454,
   58.0159,       419,
   58.0463,       460,
   58.0766,       409,
   58.1069,       384,
   58.1372,       408,
   58.1676,       401,
   58.1979,       406,
   58.2282,       390,
   58.2586,       400,
   58.2889,       414,
   58.3192,       390,
   58.3495,       404,
   58.3799,       330,
   58.4102,       357,
   58.4405,       362,
   58.4709,       424,
   58.5012,       419,
   58.5315,       435,
   58.5618,       414,
   58.5922,       397,
   58.6225,       391,
   58.6528,       426,
   58.6832,       454,
   58.7135,       419,
   58.7438,       474,
   58.7741,       482,
   58.8045,       509,
   58.8348,       536,
   58.8651,       576,
   58.8955,       603,
   58.9258,       669,
   58.9561,       679,
   58.9864,       742,
   59.0168,       760,
   59.0471,       716,
   59.0774,       686,
   59.1077,       637,
   59.1381,       656,
   59.1684,       574,
   59.1987,       542,
   59.2291,       478,
   59.2594,       414,
   59.2897,       402,
     59.32,       433,
   59.3504,       399,
   59.3807,       373,
    59.411,       359,
   59.4414,       360,
   59.4717,       358,
    59.502,       353,
   59.5323,       344,
   59.5627,       349,
    59.593,       326,
   59.6233,       324,
   59.6537,       346,
    59.684,       337,
   59.7143,       305,
   59.7446,       307,
    59.775,       301,
   59.8053,       307,
   59.8356,       290,
    59.866,       298,
   59.8963,       322,
   59.9266,       272,
   59.9569,       280,
   59.9873,       312,
   60.0176,       306,
   60.0479,       282,
   60.0782,       330,
   60.1086,       305,
   60.1389,       289,
   60.1692,       283,
   60.1996,       297,
   60.2299,       276,
   60.2602,       302,
   60.2905,       259,
   60.3209,       285,
   60.3512,       292,
   60.3815,       281,
   60.4119,       294,
   60.4422,       281,
   60.4725,       262,
   60.5028,       275,
   60.5332,       274,
   60.5635,       271,
   60.5938,       267,
   60.6242,       302,
   60.6545,       315,
   60.6848,       282,
   60.7151,       299,
   60.7455,       301,
   60.7758,       287,
   60.8061,       285,
   60.8365,       289,
   60.8668,       287,
   60.8971,       310,
   60.9274,       329,
   60.9578,       310,
   60.9881,       311,
   61.0184,       344,
   61.0487,       347,
   61.0791,       324,
   61.1094,       366,
   61.1397,       331,
   61.1701,       338,
   61.2004,       345,
   61.2307,       362,
    61.261,       341,
   61.2914,       370,
   61.3217,       348,
    61.352,       360,
   61.3824,       388,
   61.4127,       413,
    61.443,       403,
   61.4733,       437,
   61.5037,       464,
    61.534,       486,
   61.5643,       546,
   61.5947,       645,
    61.625,       737,
   61.6553,       780,
   61.6856,       740,
    61.716,       749,
   61.7463,       764,
   61.7766,       657,
    61.807,       700,
   61.8373,       644,
   61.8676,       599,
   61.8979,       520,
   61.9283,       455,
   61.9586,       457,
   61.9889,       403,
   62.0192,       412,
   62.0496,       388,
   62.0799,       454,
   62.1102,       431,
   62.1406,       464,
   62.1709,       444,
   62.2012,       445,
   62.2315,       441,
   62.2619,       503,
   62.2922,       544,
   62.3225,       537,
   62.3529,       542,
   62.3832,       543,
   62.4135,       496,
   62.4438,       518,
   62.4742,       488,
   62.5045,       471,
   62.5348,       424,
   62.5652,       380,
   62.5955,       370,
   62.6258,       365,
   62.6561,       349,
   62.6865,       302,
   62.7168,       320,
   62.7471,       292,
   62.7775,       282,
   62.8078,       299,
   62.8381,       286,
   62.8684,       273,
   62.8988,       303,
   62.9291,       288,
   62.9594,       260,
   62.9898,       266,
   63.0201,       262,
   63.0504,       288,
   63.0807,       300,
   63.1111,       247,
   63.1414,       273,
   63.1717,       256,
    63.202,       275,
   63.2324,       270,
   63.2627,       255,
    63.293,       294,
   63.3234,       257,
   63.3537,       276,
    63.384,       282,
   63.4143,       267,
   63.4447,       284,
    63.475,       273,
   63.5053,       274,
   63.5357,       302,
    63.566,       267,
   63.5963,       275,
   63.6266,       270,
    63.657,       262,
   63.6873,       247,
   63.7176,       244,
    63.748,       250,
   63.7783,       257,
   63.8086,       245,
   63.8389,       270,
   63.8693,       249,
   63.8996,       252,
   63.9299,       241,
   63.9603,       225,
   63.9906,       228,
   64.0209,       241,
   64.0512,       235,
   64.0816,       258,
   64.1119,       226,
   64.1422,       239,
   64.1725,       266,
   64.2029,       231,
   64.2332,       225,
   64.2635,       239,
   64.2939,       207,
   64.3242,       226,
   64.3545,       223,
   64.3848,       244,
   64.4152,       236,
   64.4455,       235,
   64.4758,       222,
   64.5062,       211,
   64.5365,       238,
   64.5668,       229,
   64.5971,       255,
   64.6275,       265,
   64.6578,       245,
   64.6881,       238,
   64.7185,       252,
   64.7488,       236,
   64.7791,       245,
   64.8094,       245,
   64.8398,       247,
   64.8701,       238,
   64.9004,       244,
   64.9308,       231,
   64.9611,       229,
   64.9914,       222,
   65.0217,       242,
   65.0521,       252,
   65.0824,       211,
   65.1127,       236,
    65.143,       230,
   65.1734,       197,
   65.2037,       249,
    65.234,       265,
   65.2644,       259,
   65.2947,       198,
    65.325,       207,
   65.3553,       227,
   65.3857,       222,
    65.416,       215,
   65.4463,       196,
   65.4767,       202,
    65.507,       193,
   65.5373,       216,
   65.5676,       233,
    65.598,       230,
   65.6283,       229,
   65.6586,       206,
    65.689,       235,
   65.7193,       206,
   65.7496,       206,
   65.7799,       244,
   65.8103,       204,
   65.8406,       260,
   65.8709,       227,
   65.9013,       209,
   65.9316,       239,
   65.9619,       247,
   65.9922,       250,
   66.0226,       264,
   66.0529,       243,
   66.0832,       262,
   66.1135,       240,
   66.1439,       210,
   66.1742,       264,
   66.2045,       252,
   66.2349,       258,
   66.2652,       256,
   66.2955,       261,
   66.3258,       264,
   66.3562,       249,
   66.3865,       260,
   66.4168,       233,
   66.4472,       237,
   66.4775,       235,
   66.5078,       239,
   66.5381,       242,
   66.5685,       275,
   66.5988,       241,
   66.6291,       246,
   66.6595,       242,
   66.6898,       258,
   66.7201,       258,
   66.7504,       247,
   66.7808,       245,
   66.8111,       219,
   66.8414,       218,
   66.8718,       206,
   66.9021,       250,
   66.9324,       244,
   66.9627,       243,
   66.9931,       218,
   67.0234,       257,
   67.0537,       224,
    67.084,       221,
   67.1144,       218,
   67.1447,       246,
    67.175,       246,
   67.2054,       243,
   67.2357,       229,
    67.266,       230,
   67.2963,       224,
   67.3267,       202,
    67.357,       229,
   67.3873,       221,
   67.4177,       195,
    67.448,       217,
   67.4783,       204,
   67.5086,       215,
    67.539,       210,
   67.5693,       211,
   67.5996,       242,
     67.63,       234,
   67.6603,       219,
   67.6906,       226,
   67.7209,       231,
   67.7513,       216,
   67.7816,       226,
   67.8119,       206,
   67.8423,       222,
   67.8726,       242,
   67.9029,       222,
   67.9332,       242,
   67.9636,       212,
   67.9939,       215,
   68.0242,       251,
   68.0546,       247,
   68.0849,       229,
   68.1152,       233,
   68.1455,       218,
   68.1759,       241,
   68.2062,       213,
   68.2365,       234,
   68.2668,       206,
   68.2972,       208,
   68.3275,       238,
   68.3578,       201,
   68.3882,       215,
   68.4185,       226,
   68.4488,       225,
   68.4791,       236,
   68.5095,       212,
   68.5398,       215,
   68.5701,       215,
   68.6005,       242,
   68.6308,       262,
   68.6611,       225,
   68.6914,       240,
   68.7218,       237,
   68.7521,       248,
   68.7824,       237,
   68.8128,       209,
   68.8431,       255,
   68.8734,       255,
   68.9037,       208,
   68.9341,       206,
   68.9644,       222,
   68.9947,       215,
   69.0251,       235,
   69.0554,       234,
   69.0857,       221,
    69.116,       211,
   69.1464,       206,
   69.1767,       208,
    69.207,       214,
   69.2373,       212,
   69.2677,       191,
    69.298,       251,
   69.3283,       225,
   69.3587,       210,
    69.389,       220,
   69.4193,       219,
   69.4496,       204,
     69.48,       202,
   69.5103,       235,
   69.5406,       238,
    69.571,       230,
   69.6013,       215,
   69.6316,       230,
   69.6619,       207,
   69.6923,       227,
   69.7226,       215,
   69.7529,       240,
   69.7833,       238,
   69.8136,       263,
   69.8439,       246,
   69.8742,       272,
   69.9046,       273,
   69.9349,       242,
   69.9652,       295,
   69.9956,       271,
