;RAW4.00
[RawHeader]
Date=04/21/2019
EstimatedTotalTime=2311.17
FurtherDQLReading=0
HardwareIndicator=65519
MeasuredTotalTime=2311.17
MeasurementFlag=1
NumberOfMeasuredRanges=1
NumberOfRanges=1
Time=19:22:33

[VarInfo]
Type=USER
Flags=0
Value=Bruker Service

[VarInfo]
Type=SAMPLEID
Flags=0
Value=Commander Sample ID

[VarInfo]
Type=COMMENT
Flags=0
Value=

[VarInfo]
Type=UTF
Flags=0
Value=

[VarInfo]
Type=CREATOR
Flags=0
Value=BrmlToV4Converter

[VarInfo]
Type=CREATOR_VERSION
Flags=0
Value=7.3.0.0

[HardwareConfiguration]
AbsorptionFactor=9999
ActivateAbsorber=0
Alpha1=1.78897
Alpha2=1.79285
AlphaAverage=1.79026
AlphaRatio=0.5
Analyzer=0
Anode=Co
AntiScatteringSlit=9999
BeamOpticsFlags=0
Beta=1.62079
BetaRelativeIntensity=0
DeactivateAbsorber=0
DetectorSlit=9999
DivergenceSlit=1
GoniometerControl=0
GoniometerDiameter=282
GoniometerModel=256
GoniometerStage=7
Monochromator=0
NearSampleSlit=9999
PrimarySollerSlit=9999
SampleChanger=0
SecondSollerSlit=9999
SynchronousAxis=0
ThinFilmAttachment=9999
WaveUnit=A

[RangeHeader]
ActuallyUsedLambda=1.79026
AdditionalDetectorMask=257
DataRecordLength=4
DelayTime=0
DisplayPlaneNumber=0
EstimatedScanTime=2311
ExtraParametersMask=0
GeneratorCurrent=10
GeneratorVoltage=30
Increment=0.0303281
Increment3=0
NumberOfCompletedData=2144
NumberOfCounts=1
NumberOfDetectors=0
NumberOfDrives=2
NumberOfEncoderDrives=0
NumberOfMeasuredData=2144
NumberOfVaryingParameters=0
RangeStartTime=0
RotationSpeed=1
ScanMode=1
ScanType=Locked Coupled
SimulatedMeasConditions=0
SlitChangerIn=0
SmootingWidth=0
Start=5.00234
Steps=2144
SynchronousRotation=0
Time=165

[VarInfo]
Type=PSD_DISCRIM
Flags=0
Value=0.11;0.25

[PSD]
ActualTwoTheta=9999
FirstUsedChannel=0
FixedPSD=0
PSDOpening=5.00414
PSDType=5

[Drive]
DriveFlags=1
DriveName=2Theta
DriveNumber=2
DriveOffset=0
OffsetIndex=0
OscillationAmplitude=0
OscillationSpeed=0
StartPosition=5.00234

[Drive]
DriveFlags=1
DriveName=Theta
DriveNumber=1
DriveOffset=0
OffsetIndex=0
OscillationAmplitude=0
OscillationSpeed=0
StartPosition=2.50117

[Data]
     Angle,       PSD,
   5.00234,      8399,
   5.03267,      8151,
     5.063,      8172,
   5.09333,      8127,
   5.12365,      8078,
   5.15398,      7834,
   5.18431,      7784,
   5.21464,      7890,
   5.24497,      7704,
   5.27529,      7511,
   5.30562,      7440,
   5.33595,      7238,
   5.36628,      7119,
   5.39661,      6921,
   5.42694,      6988,
   5.45726,      6932,
   5.48759,      6654,
   5.51792,      6640,
   5.54825,      6660,
   5.57858,      6598,
    5.6089,      6467,
   5.63923,      6422,
   5.66956,      6150,
   5.69989,      6151,
   5.73022,      5913,
   5.76055,      5798,
   5.79087,      5444,
    5.8212,      5224,
   5.85153,      5165,
   5.88186,      5007,
   5.91219,      4917,
   5.94251,      4732,
   5.97284,      4807,
   6.00317,      4812,
    6.0335,      4770,
   6.06383,      4654,
   6.09415,      4607,
   6.12448,      4701,
   6.15481,      4365,
   6.18514,      4436,
   6.21547,      4460,
    6.2458,      4208,
   6.27612,      4034,
   6.30645,      4145,
   6.33678,      4137,
   6.36711,      4161,
   6.39744,      4072,
   6.42776,      3865,
   6.45809,      3865,
   6.48842,      3984,
   6.51875,      3899,
   6.54908,      3860,
    6.5794,      3899,
   6.60973,      3790,
   6.64006,      3729,
   6.67039,      3646,
   6.70072,      3715,
   6.73105,      3608,
   6.76137,      3588,
    6.7917,      3379,
   6.82203,      3376,
   6.85236,      3448,
   6.88269,      3154,
   6.91301,      3202,
   6.94334,      3292,
   6.97367,      3231,
     7.004,      3115,
   7.03433,      3036,
   7.06466,      3102,
   7.09498,      3035,
   7.12531,      2930,
   7.15564,      2924,
   7.18597,      2814,
    7.2163,      2857,
   7.24662,      2764,
   7.27695,      2732,
   7.30728,      2748,
   7.33761,      2862,
   7.36794,      2794,
   7.39826,      2622,
   7.42859,      2589,
   7.45892,      2500,
   7.48925,      2446,
   7.51958,      2527,
   7.54991,      2534,
   7.58023,      2436,
   7.61056,      2382,
   7.64089,      2303,
   7.67122,      2369,
   7.70155,      2373,
   7.73187,      2300,
    7.7622,      2400,
   7.79253,      2288,
   7.82286,      2269,
   7.85319,      2237,
   7.88352,      2208,
   7.91384,      2189,
   7.94417,      2200,
    7.9745,      2068,
   8.00483,      2198,
   8.03516,      2113,
   8.06548,      2021,
   8.09581,      2026,
   8.12614,      2059,
   8.15647,      1975,
    8.1868,      1959,
   8.21712,      1907,
   8.24745,      1781,
   8.27778,      1797,
   8.30811,      1923,
   8.33844,      1808,
   8.36877,      1736,
   8.39909,      1659,
   8.42942,      1813,
   8.45975,      1805,
   8.49008,      1672,
   8.52041,      1787,
   8.55073,      1697,
   8.58106,      1710,
   8.61139,      1636,
   8.64172,      1641,
   8.67205,      1572,
   8.70237,      1534,
    8.7327,      1531,
   8.76303,      1499,
   8.79336,      1649,
   8.82369,      1584,
   8.85402,      1647,
   8.88434,      1639,
   8.91467,      1599,
     8.945,      1529,
   8.97533,      1547,
   9.00566,      1383,
   9.03598,      1457,
   9.06631,      1525,
   9.09664,      1386,
   9.12697,      1455,
    9.1573,      1517,
   9.18763,      1403,
   9.21795,      1434,
   9.24828,      1467,
   9.27861,      1396,
   9.30894,      1427,
   9.33927,      1385,
   9.36959,      1343,
   9.39992,      1263,
   9.43025,      1261,
   9.46058,      1307,
   9.49091,      1366,
   9.52123,      1282,
   9.55156,      1293,
   9.58189,      1302,
   9.61222,      1322,
   9.64255,      1299,
   9.67288,      1281,
    9.7032,      1255,
   9.73353,      1291,
   9.76386,      1219,
   9.79419,      1314,
   9.82452,      1253,
   9.85484,      1249,
   9.88517,      1270,
    9.9155,      1195,
   9.94583,      1243,
   9.97616,      1156,
   10.0065,      1200,
   10.0368,      1148,
   10.0671,      1167,
   10.0975,      1205,
   10.1278,      1179,
   10.1581,      1165,
   10.1885,      1135,
   10.2188,      1149,
   10.2491,      1167,
   10.2794,      1103,
   10.3098,      1119,
   10.3401,      1134,
   10.3704,      1226,
   10.4008,      1138,
   10.4311,      1105,
   10.4614,      1152,
   10.4917,      1077,
   10.5221,      1102,
   10.5524,      1151,
   10.5827,      1068,
    10.613,      1117,
   10.6434,      1108,
   10.6737,      1067,
    10.704,      1127,
   10.7344,      1054,
   10.7647,      1130,
    10.795,      1008,
   10.8253,      1071,
   10.8557,      1036,
    10.886,      1075,
   10.9163,      1071,
   10.9467,      1111,
    10.977,      1014,
   11.0073,      1066,
   11.0376,      1050,
    11.068,      1030,
   11.0983,      1013,
   11.1286,       998,
    11.159,       966,
   11.1893,      1036,
   11.2196,      1075,
   11.2499,      1046,
   11.2803,      1034,
   11.3106,      1027,
   11.3409,      1039,
   11.3713,      1009,
   11.4016,       965,
   11.4319,      1030,
   11.4622,      1007,
   11.4926,      1002,
   11.5229,      1037,
   11.5532,      1005,
   11.5835,       989,
   11.6139,       966,
   11.6442,       995,
   11.6745,       893,
   11.7049,      1078,
   11.7352,       978,
   11.7655,       974,
   11.7958,       950,
   11.8262,      1025,
   11.8565,       912,
   11.8868,      1006,
   11.9172,      1009,
   11.9475,       968,
   11.9778,       968,
   12.0081,       936,
   12.0385,       930,
   12.0688,       941,
   12.0991,       926,
   12.1295,       957,
   12.1598,       907,
   12.1901,       907,
   12.2204,       897,
   12.2508,       974,
   12.2811,       912,
   12.3114,       958,
   12.3418,       906,
   12.3721,       838,
   12.4024,       933,
   12.4327,       875,
   12.4631,       909,
   12.4934,       913,
   12.5237,       911,
    12.554,       858,
   12.5844,       851,
   12.6147,       892,
    12.645,       913,
   12.6754,       847,
   12.7057,       863,
    12.736,       870,
   12.7663,       887,
   12.7967,       903,
    12.827,       902,
   12.8573,       893,
   12.8877,       873,
    12.918,       881,
   12.9483,       880,
   12.9786,       852,
    13.009,       903,
   13.0393,       869,
   13.0696,       879,
      13.1,       817,
   13.1303,       842,
   13.1606,       831,
   13.1909,       830,
   13.2213,       839,
   13.2516,       894,
   13.2819,       918,
   13.3123,       862,
   13.3426,       895,
   13.3729,       969,
   13.4032,      1030,
   13.4336,      1072,
   13.4639,      1165,
   13.4942,      1370,
   13.5245,      1377,
   13.5549,      1293,
   13.5852,      1113,
   13.6155,       944,
   13.6459,       864,
   13.6762,       925,
   13.7065,       872,
   13.7368,       802,
   13.7672,       830,
   13.7975,       789,
   13.8278,       815,
   13.8582,       762,
   13.8885,       881,
   13.9188,       811,
   13.9491,       809,
   13.9795,       824,
   14.0098,       788,
   14.0401,       783,
   14.0705,       810,
   14.1008,       808,
   14.1311,       824,
   14.1614,       751,
   14.1918,       805,
   14.2221,       818,
   14.2524,       782,
   14.2828,       840,
   14.3131,       755,
   14.3434,       784,
   14.3737,       772,
   14.4041,       789,
   14.4344,       756,
   14.4647,       737,
   14.4951,       760,
   14.5254,       771,
   14.5557,       825,
    14.586,       776,
   14.6164,       739,
   14.6467,       763,
    14.677,       714,
   14.7073,       789,
   14.7377,       773,
    14.768,       761,
   14.7983,       785,
   14.8287,       722,
    14.859,       758,
   14.8893,       726,
   14.9196,       754,
     14.95,       753,
   14.9803,       733,
   15.0106,       692,
    15.041,       733,
   15.0713,       707,
   15.1016,       702,
   15.1319,       721,
   15.1623,       751,
   15.1926,       758,
   15.2229,       736,
   15.2533,       677,
   15.2836,       703,
   15.3139,       746,
   15.3442,       724,
   15.3746,       677,
   15.4049,       733,
   15.4352,       731,
   15.4656,       740,
   15.4959,       737,
   15.5262,       742,
   15.5565,       704,
   15.5869,       753,
   15.6172,       729,
   15.6475,       728,
   15.6778,       713,
   15.7082,       676,
   15.7385,       723,
   15.7688,       697,
   15.7992,       656,
   15.8295,       671,
   15.8598,       704,
   15.8901,       732,
   15.9205,       706,
   15.9508,       668,
   15.9811,       676,
   16.0115,       698,
   16.0418,       699,
   16.0721,       657,
   16.1024,       667,
   16.1328,       699,
   16.1631,       687,
   16.1934,       704,
   16.2238,       693,
   16.2541,       622,
   16.2844,       661,
   16.3147,       658,
   16.3451,       639,
   16.3754,       648,
   16.4057,       654,
   16.4361,       678,
   16.4664,       682,
   16.4967,       709,
    16.527,       663,
   16.5574,       708,
   16.5877,       761,
    16.618,       843,
   16.6483,       965,
   16.6787,       917,
    16.709,       802,
   16.7393,       729,
   16.7697,       685,
      16.8,       660,
   16.8303,       677,
   16.8606,       609,
    16.891,       665,
   16.9213,       645,
   16.9516,       620,
    16.982,       639,
   17.0123,       645,
   17.0426,       655,
   17.0729,       679,
   17.1033,       653,
   17.1336,       669,
   17.1639,       612,
   17.1943,       628,
   17.2246,       620,
   17.2549,       610,
   17.2852,       658,
   17.3156,       652,
   17.3459,       601,
   17.3762,       639,
   17.4066,       589,
   17.4369,       608,
   17.4672,       601,
   17.4975,       628,
   17.5279,       589,
   17.5582,       662,
   17.5885,       622,
   17.6188,       633,
   17.6492,       610,
   17.6795,       608,
   17.7098,       611,
   17.7402,       625,
   17.7705,       603,
   17.8008,       567,
   17.8311,       634,
   17.8615,       533,
   17.8918,       577,
   17.9221,       607,
   17.9525,       589,
   17.9828,       620,
   18.0131,       648,
   18.0434,       637,
   18.0738,       573,
   18.1041,       558,
   18.1344,       583,
   18.1648,       613,
   18.1951,       560,
   18.2254,       574,
   18.2557,       594,
   18.2861,       589,
   18.3164,       606,
   18.3467,       599,
   18.3771,       599,
   18.4074,       573,
   18.4377,       595,
    18.468,       540,
   18.4984,       594,
   18.5287,       615,
    18.559,       590,
   18.5893,       578,
   18.6197,       582,
     18.65,       584,
   18.6803,       566,
   18.7107,       602,
    18.741,       618,
   18.7713,       549,
   18.8016,       585,
    18.832,       587,
   18.8623,       567,
   18.8926,       638,
    18.923,       552,
   18.9533,       556,
   18.9836,       584,
   19.0139,       520,
   19.0443,       577,
   19.0746,       607,
   19.1049,       561,
   19.1353,       539,
   19.1656,       609,
   19.1959,       557,
   19.2262,       521,
   19.2566,       526,
   19.2869,       570,
   19.3172,       557,
   19.3476,       547,
   19.3779,       585,
   19.4082,       604,
   19.4385,       529,
   19.4689,       564,
   19.4992,       549,
   19.5295,       531,
   19.5599,       560,
   19.5902,       542,
   19.6205,       540,
   19.6508,       548,
   19.6812,       553,
   19.7115,       587,
   19.7418,       539,
   19.7721,       526,
   19.8025,       553,
   19.8328,       505,
   19.8631,       563,
   19.8935,       518,
   19.9238,       544,
   19.9541,       520,
   19.9844,       569,
   20.0148,       551,
   20.0451,       539,
   20.0754,       564,
   20.1058,       515,
   20.1361,       527,
   20.1664,       521,
   20.1967,       551,
   20.2271,       565,
   20.2574,       568,
   20.2877,       538,
   20.3181,       568,
   20.3484,       574,
   20.3787,       512,
    20.409,       587,
   20.4394,       574,
   20.4697,       551,
      20.5,       519,
   20.5304,       514,
   20.5607,       577,
    20.591,       539,
   20.6213,       565,
   20.6517,       521,
    20.682,       515,
   20.7123,       555,
   20.7426,       517,
    20.773,       535,
   20.8033,       528,
   20.8336,       542,
    20.864,       483,
   20.8943,       533,
   20.9246,       546,
   20.9549,       522,
   20.9853,       523,
   21.0156,       560,
   21.0459,       524,
   21.0763,       488,
   21.1066,       508,
   21.1369,       491,
   21.1672,       513,
   21.1976,       529,
   21.2279,       547,
   21.2582,       520,
   21.2886,       532,
   21.3189,       512,
   21.3492,       471,
   21.3795,       512,
   21.4099,       519,
   21.4402,       539,
   21.4705,       554,
   21.5009,       512,
   21.5312,       523,
   21.5615,       550,
   21.5918,       563,
   21.6222,       507,
   21.6525,       511,
   21.6828,       465,
   21.7131,       526,
   21.7435,       506,
   21.7738,       514,
   21.8041,       520,
   21.8345,       494,
   21.8648,       545,
   21.8951,       517,
   21.9254,       509,
   21.9558,       553,
   21.9861,       529,
   22.0164,       494,
   22.0468,       471,
   22.0771,       499,
   22.1074,       518,
   22.1377,       523,
   22.1681,       507,
   22.1984,       512,
   22.2287,       515,
   22.2591,       487,
   22.2894,       494,
   22.3197,       490,
     22.35,       517,
   22.3804,       501,
   22.4107,       500,
    22.441,       526,
   22.4714,       528,
   22.5017,       543,
    22.532,       481,
   22.5623,       473,
   22.5927,       480,
    22.623,       493,
   22.6533,       515,
   22.6836,       515,
    22.714,       483,
   22.7443,       483,
   22.7746,       495,
    22.805,       463,
   22.8353,       512,
   22.8656,       527,
   22.8959,       482,
   22.9263,       510,
   22.9566,       508,
   22.9869,       511,
   23.0173,       517,
   23.0476,       474,
   23.0779,       445,
   23.1082,       462,
   23.1386,       479,
   23.1689,       481,
   23.1992,       499,
   23.2296,       489,
   23.2599,       503,
   23.2902,       528,
   23.3205,       534,
   23.3509,       546,
   23.3812,       519,
   23.4115,       470,
   23.4419,       513,
   23.4722,       500,
   23.5025,       509,
   23.5328,       493,
   23.5632,       476,
   23.5935,       488,
   23.6238,       512,
   23.6541,       496,
   23.6845,       501,
   23.7148,       502,
   23.7451,       498,
   23.7755,       508,
   23.8058,       485,
   23.8361,       476,
   23.8664,       458,
   23.8968,       511,
   23.9271,       472,
   23.9574,       480,
   23.9878,       499,
   24.0181,       541,
   24.0484,       580,
   24.0787,       660,
   24.1091,       780,
   24.1394,       767,
   24.1697,       779,
   24.2001,       636,
   24.2304,       561,
   24.2607,       574,
    24.291,       547,
   24.3214,       492,
   24.3517,       507,
    24.382,       481,
   24.4124,       474,
   24.4427,       512,
    24.473,       487,
   24.5033,       508,
   24.5337,       530,
    24.564,       522,
   24.5943,       494,
   24.6246,       465,
    24.655,       509,
   24.6853,       486,
   24.7156,       404,
    24.746,       468,
   24.7763,       441,
   24.8066,       453,
   24.8369,       435,
   24.8673,       440,
   24.8976,       424,
   24.9279,       445,
   24.9583,       404,
   24.9886,       418,
   25.0189,       435,
   25.0492,       423,
   25.0796,       475,
   25.1099,       394,
   25.1402,       426,
   25.1706,       433,
   25.2009,       419,
   25.2312,       441,
   25.2615,       398,
   25.2919,       437,
   25.3222,       401,
   25.3525,       385,
   25.3829,       392,
   25.4132,       448,
   25.4435,       429,
   25.4738,       426,
   25.5042,       439,
   25.5345,       395,
   25.5648,       412,
   25.5952,       457,
   25.6255,       417,
   25.6558,       436,
   25.6861,       432,
   25.7165,       420,
   25.7468,       385,
   25.7771,       449,
   25.8074,       413,
   25.8378,       393,
   25.8681,       415,
   25.8984,       428,
   25.9288,       382,
   25.9591,       439,
   25.9894,       422,
   26.0197,       406,
   26.0501,       429,
   26.0804,       427,
   26.1107,       427,
   26.1411,       422,
   26.1714,       429,
   26.2017,       428,
    26.232,       373,
   26.2624,       391,
   26.2927,       400,
    26.323,       441,
   26.3534,       400,
   26.3837,       416,
    26.414,       424,
   26.4443,       416,
   26.4747,       429,
    26.505,       399,
   26.5353,       413,
   26.5657,       411,
    26.596,       424,
   26.6263,       409,
   26.6566,       432,
    26.687,       412,
   26.7173,       409,
   26.7476,       402,
   26.7779,       426,
   26.8083,       419,
   26.8386,       415,
   26.8689,       416,
   26.8993,       444,
   26.9296,       454,
   26.9599,       454,
   26.9902,       464,
   27.0206,       518,
   27.0509,       524,
   27.0812,       584,
   27.1116,       586,
   27.1419,       634,
   27.1722,       692,
   27.2025,       716,
   27.2329,       715,
   27.2632,       578,
   27.2935,       605,
   27.3239,       547,
   27.3542,       443,
   27.3845,       500,
   27.4148,       496,
   27.4452,       439,
   27.4755,       427,
   27.5058,       457,
   27.5362,       449,
   27.5665,       466,
   27.5968,       440,
   27.6271,       411,
   27.6575,       429,
   27.6878,       422,
   27.7181,       409,
   27.7484,       380,
   27.7788,       391,
   27.8091,       428,
   27.8394,       399,
   27.8698,       398,
   27.9001,       374,
   27.9304,       393,
   27.9607,       413,
   27.9911,       361,
   28.0214,       406,
   28.0517,       373,
   28.0821,       376,
   28.1124,       390,
   28.1427,       392,
    28.173,       387,
   28.2034,       407,
   28.2337,       383,
    28.264,       409,
   28.2944,       403,
   28.3247,       399,
    28.355,       355,
   28.3853,       372,
   28.4157,       392,
    28.446,       399,
   28.4763,       414,
   28.5067,       364,
    28.537,       400,
   28.5673,       368,
   28.5976,       405,
    28.628,       388,
   28.6583,       413,
   28.6886,       395,
   28.7189,       393,
   28.7493,       369,
   28.7796,       387,
   28.8099,       367,
   28.8403,       371,
   28.8706,       347,
   28.9009,       366,
   28.9312,       360,
   28.9616,       317,
   28.9919,       372,
   29.0222,       379,
   29.0526,       392,
   29.0829,       369,
   29.1132,       395,
   29.1435,       372,
   29.1739,       375,
   29.2042,       384,
   29.2345,       387,
   29.2649,       364,
   29.2952,       340,
   29.3255,       378,
   29.3558,       378,
   29.3862,       384,
   29.4165,       382,
   29.4468,       403,
   29.4772,       374,
   29.5075,       377,
   29.5378,       390,
   29.5681,       378,
   29.5985,       384,
   29.6288,       358,
   29.6591,       389,
   29.6894,       385,
   29.7198,       377,
   29.7501,       392,
   29.7804,       394,
   29.8108,       395,
   29.8411,       417,
   29.8714,       361,
   29.9017,       411,
   29.9321,       401,
   29.9624,       402,
   29.9927,       398,
   30.0231,       404,
   30.0534,       396,
   30.0837,       442,
    30.114,       428,
   30.1444,       435,
   30.1747,       487,
    30.205,       486,
   30.2354,       511,
   30.2657,       564,
    30.296,       597,
   30.3263,       671,
   30.3567,       780,
    30.387,       909,
   30.4173,      1112,
   30.4477,      1431,
    30.478,      1839,
   30.5083,      2314,
   30.5386,      2339,
    30.569,      2050,
   30.5993,      1648,
   30.6296,      1399,
     30.66,      1031,
   30.6903,       856,
   30.7206,       657,
   30.7509,       669,
   30.7813,       625,
   30.8116,       622,
   30.8419,       552,
   30.8722,       552,
   30.9026,       521,
   30.9329,       457,
   30.9632,       514,
   30.9936,       499,
   31.0239,       511,
   31.0542,       638,
   31.0845,       544,
   31.1149,       561,
   31.1452,       496,
   31.1755,       478,
   31.2059,       476,
   31.2362,       458,
   31.2665,       470,
   31.2968,       537,
   31.3272,       468,
   31.3575,       506,
   31.3878,       501,
   31.4182,       535,
   31.4485,       576,
   31.4788,       598,
   31.5091,       627,
   31.5395,       654,
   31.5698,       736,
   31.6001,       879,
   31.6305,       969,
   31.6608,      1042,
   31.6911,      1252,
   31.7214,      1189,
   31.7518,      1080,
   31.7821,       970,
   31.8124,       794,
   31.8427,       680,
   31.8731,       642,
   31.9034,       553,
   31.9337,       512,
   31.9641,       533,
   31.9944,       440,
   32.0247,       440,
    32.055,       384,
   32.0854,       430,
   32.1157,       430,
    32.146,       418,
   32.1764,       358,
   32.2067,       364,
    32.237,       383,
   32.2673,       387,
   32.2977,       396,
    32.328,       382,
   32.3583,       340,
   32.3887,       354,
    32.419,       386,
   32.4493,       378,
   32.4796,       371,
     32.51,       349,
   32.5403,       344,
   32.5706,       345,
    32.601,       347,
   32.6313,       341,
   32.6616,       359,
   32.6919,       345,
   32.7223,       341,
   32.7526,       388,
   32.7829,       371,
   32.8132,       358,
   32.8436,       314,
   32.8739,       380,
   32.9042,       351,
   32.9346,       319,
   32.9649,       351,
   32.9952,       318,
   33.0255,       339,
   33.0559,       336,
   33.0862,       332,
   33.1165,       346,
   33.1469,       320,
   33.1772,       309,
   33.2075,       317,
   33.2378,       291,
   33.2682,       319,
   33.2985,       346,
   33.3288,       353,
   33.3592,       320,
   33.3895,       339,
   33.4198,       311,
   33.4501,       338,
   33.4805,       360,
   33.5108,       346,
   33.5411,       328,
   33.5715,       330,
   33.6018,       354,
   33.6321,       329,
   33.6624,       344,
   33.6928,       354,
   33.7231,       361,
   33.7534,       388,
   33.7837,       368,
   33.8141,       339,
   33.8444,       414,
   33.8747,       439,
   33.9051,       501,
   33.9354,       529,
   33.9657,       485,
    33.996,       492,
   34.0264,       461,
   34.0567,       423,
    34.087,       434,
   34.1174,       404,
   34.1477,       394,
    34.178,       418,
   34.2083,       490,
   34.2387,       482,
    34.269,       612,
   34.2993,       653,
   34.3297,       642,
     34.36,       668,
   34.3903,       674,
   34.4206,       670,
    34.451,       741,
   34.4813,       835,
   34.5116,       957,
    34.542,      1041,
   34.5723,      1260,
   34.6026,      1499,
   34.6329,      1849,
   34.6633,      2026,
   34.6936,      2188,
   34.7239,      2411,
   34.7542,      2398,
   34.7846,      2424,
   34.8149,      2143,
   34.8452,      1985,
   34.8756,      1696,
   34.9059,      1525,
   34.9362,      1294,
   34.9665,      1196,
   34.9969,      1110,
   35.0272,       909,
   35.0575,       799,
   35.0879,       712,
   35.1182,       731,
   35.1485,       618,
   35.1788,       607,
   35.2092,       498,
   35.2395,       483,
   35.2698,       484,
   35.3002,       476,
   35.3305,       431,
   35.3608,       459,
   35.3911,       444,
   35.4215,       402,
   35.4518,       438,
   35.4821,       399,
   35.5125,       434,
   35.5428,       410,
   35.5731,       355,
   35.6034,       377,
   35.6338,       392,
   35.6641,       376,
   35.6944,       378,
   35.7248,       359,
   35.7551,       396,
   35.7854,       395,
   35.8157,       390,
   35.8461,       412,
   35.8764,       381,
   35.9067,       390,
    35.937,       389,
   35.9674,       397,
   35.9977,       394,
    36.028,       395,
   36.0584,       386,
   36.0887,       392,
    36.119,       371,
   36.1493,       374,
   36.1797,       382,
     36.21,       459,
   36.2403,       487,
   36.2707,       466,
    36.301,       467,
   36.3313,       402,
   36.3616,       427,
    36.392,       382,
   36.4223,       375,
   36.4526,       368,
    36.483,       361,
   36.5133,       349,
   36.5436,       319,
   36.5739,       332,
   36.6043,       311,
   36.6346,       326,
   36.6649,       353,
   36.6953,       330,
   36.7256,       331,
   36.7559,       343,
   36.7862,       330,
   36.8166,       329,
   36.8469,       364,
   36.8772,       406,
   36.9075,       434,
   36.9379,       509,
   36.9682,       567,
   36.9985,       622,
   37.0289,       556,
   37.0592,       567,
   37.0895,       494,
   37.1198,       418,
   37.1502,       407,
   37.1805,       417,
   37.2108,       386,
   37.2412,       357,
   37.2715,       332,
   37.3018,       348,
   37.3321,       344,
   37.3625,       345,
   37.3928,       413,
   37.4231,       345,
   37.4535,       342,
   37.4838,       339,
   37.5141,       352,
   37.5444,       334,
   37.5748,       388,
   37.6051,       407,
   37.6354,       388,
   37.6658,       338,
   37.6961,       341,
   37.7264,       318,
   37.7567,       315,
   37.7871,       328,
   37.8174,       331,
   37.8477,       340,
    37.878,       314,
   37.9084,       309,
   37.9387,       308,
    37.969,       334,
   37.9994,       342,
   38.0297,       329,
     38.06,       380,
   38.0903,       358,
   38.1207,       384,
    38.151,       435,
   38.1813,       455,
   38.2117,       466,
    38.242,       477,
   38.2723,       441,
   38.3026,       385,
    38.333,       454,
   38.3633,       449,
   38.3936,       434,
    38.424,       464,
   38.4543,       531,
   38.4846,       489,
   38.5149,       603,
   38.5453,       732,
   38.5756,       886,
   38.6059,      1002,
   38.6363,      1052,
   38.6666,       990,
   38.6969,       874,
   38.7272,       767,
   38.7576,       659,
   38.7879,       551,
   38.8182,       484,
   38.8485,       437,
   38.8789,       404,
   38.9092,       402,
   38.9395,       416,
   38.9699,       415,
   39.0002,       412,
   39.0305,       397,
   39.0608,       352,
   39.0912,       343,
   39.1215,       335,
   39.1518,       341,
   39.1822,       303,
   39.2125,       312,
   39.2428,       283,
   39.2731,       278,
   39.3035,       259,
   39.3338,       336,
   39.3641,       298,
   39.3945,       273,
   39.4248,       292,
   39.4551,       285,
   39.4854,       285,
   39.5158,       241,
   39.5461,       280,
   39.5764,       305,
   39.6068,       308,
   39.6371,       291,
   39.6674,       306,
   39.6977,       302,
   39.7281,       262,
   39.7584,       320,
   39.7887,       258,
    39.819,       284,
   39.8494,       306,
   39.8797,       280,
     39.91,       296,
   39.9404,       298,
   39.9707,       283,
    40.001,       296,
   40.0313,       228,
   40.0617,       285,
    40.092,       277,
   40.1223,       286,
   40.1527,       291,
    40.183,       288,
   40.2133,       258,
   40.2436,       268,
    40.274,       298,
   40.3043,       292,
   40.3346,       289,
    40.365,       291,
   40.3953,       266,
   40.4256,       299,
   40.4559,       286,
   40.4863,       291,
   40.5166,       298,
   40.5469,       274,
   40.5773,       272,
   40.6076,       283,
   40.6379,       303,
   40.6682,       321,
   40.6986,       272,
   40.7289,       293,
   40.7592,       314,
   40.7895,       270,
   40.8199,       286,
   40.8502,       289,
   40.8805,       287,
   40.9109,       274,
   40.9412,       285,
   40.9715,       295,
   41.0018,       300,
   41.0322,       283,
   41.0625,       286,
   41.0928,       266,
   41.1232,       285,
   41.1535,       304,
   41.1838,       294,
   41.2141,       292,
   41.2445,       291,
   41.2748,       274,
   41.3051,       250,
   41.3355,       263,
   41.3658,       267,
   41.3961,       295,
   41.4264,       307,
   41.4568,       278,
   41.4871,       293,
   41.5174,       312,
   41.5478,       292,
   41.5781,       301,
   41.6084,       293,
   41.6387,       308,
   41.6691,       278,
   41.6994,       287,
   41.7297,       286,
   41.7601,       278,
   41.7904,       306,
   41.8207,       315,
    41.851,       341,
   41.8814,       384,
   41.9117,       365,
    41.942,       412,
   41.9723,       394,
   42.0027,       463,
    42.033,       493,
   42.0633,       547,
   42.0937,       673,
    42.124,       724,
   42.1543,       699,
   42.1846,       751,
    42.215,       706,
   42.2453,       717,
   42.2756,       654,
    42.306,       650,
   42.3363,       557,
   42.3666,       521,
   42.3969,       511,
   42.4273,       508,
   42.4576,       498,
   42.4879,       552,
   42.5183,       526,
   42.5486,       564,
   42.5789,       539,
   42.6092,       489,
   42.6396,       466,
   42.6699,       475,
   42.7002,       433,
   42.7306,       422,
   42.7609,       424,
   42.7912,       425,
   42.8215,       363,
   42.8519,       344,
   42.8822,       343,
   42.9125,       295,
   42.9428,       338,
   42.9732,       322,
   43.0035,       341,
   43.0338,       310,
   43.0642,       311,
   43.0945,       295,
   43.1248,       281,
   43.1551,       306,
   43.1855,       317,
   43.2158,       306,
   43.2461,       323,
   43.2765,       329,
   43.3068,       353,
   43.3371,       361,
   43.3674,       348,
   43.3978,       396,
   43.4281,       395,
   43.4584,       395,
   43.4888,       424,
   43.5191,       421,
   43.5494,       411,
   43.5797,       435,
   43.6101,       411,
   43.6404,       378,
   43.6707,       395,
   43.7011,       371,
   43.7314,       327,
   43.7617,       335,
    43.792,       337,
   43.8224,       323,
   43.8527,       333,
    43.883,       323,
   43.9133,       300,
   43.9437,       298,
    43.974,       340,
   44.0043,       319,
   44.0347,       377,
    44.065,       350,
   44.0953,       388,
   44.1256,       452,
    44.156,       537,
   44.1863,       629,
   44.2166,       709,
    44.247,       780,
   44.2773,       755,
   44.3076,       687,
   44.3379,       623,
   44.3683,       592,
   44.3986,       462,
   44.4289,       434,
   44.4593,       441,
   44.4896,       379,
   44.5199,       405,
   44.5502,       381,
   44.5806,       367,
   44.6109,       376,
   44.6412,       390,
   44.6716,       362,
   44.7019,       401,
   44.7322,       427,
   44.7625,       397,
   44.7929,       473,
   44.8232,       494,
   44.8535,       584,
   44.8838,       597,
   44.9142,       586,
   44.9445,       598,
   44.9748,       550,
   45.0052,       558,
   45.0355,       524,
   45.0658,       557,
   45.0961,       620,
   45.1265,       529,
   45.1568,       488,
   45.1871,       478,
   45.2175,       439,
   45.2478,       402,
   45.2781,       331,
   45.3084,       329,
   45.3388,       310,
   45.3691,       298,
   45.3994,       277,
   45.4298,       278,
   45.4601,       276,
   45.4904,       303,
   45.5207,       261,
   45.5511,       273,
   45.5814,       265,
   45.6117,       283,
   45.6421,       300,
   45.6724,       262,
   45.7027,       244,
    45.733,       274,
   45.7634,       280,
   45.7937,       273,
    45.824,       263,
   45.8543,       271,
   45.8847,       272,
    45.915,       261,
   45.9453,       294,
   45.9757,       268,
    46.006,       275,
   46.0363,       290,
   46.0666,       276,
    46.097,       299,
   46.1273,       308,
   46.1576,       278,
    46.188,       271,
   46.2183,       300,
   46.2486,       283,
   46.2789,       287,
   46.3093,       303,
   46.3396,       287,
   46.3699,       275,
   46.4003,       315,
   46.4306,       338,
   46.4609,       324,
   46.4912,       333,
   46.5216,       376,
   46.5519,       407,
   46.5822,       443,
   46.6126,       471,
   46.6429,       447,
   46.6732,       500,
   46.7035,       539,
   46.7339,       516,
   46.7642,       498,
   46.7945,       470,
   46.8249,       484,
   46.8552,       464,
   46.8855,       395,
   46.9158,       398,
   46.9462,       376,
   46.9765,       379,
   47.0068,       370,
   47.0371,       383,
   47.0675,       377,
   47.0978,       328,
   47.1281,       291,
   47.1585,       295,
   47.1888,       311,
   47.2191,       302,
   47.2494,       287,
   47.2798,       285,
   47.3101,       280,
   47.3404,       259,
   47.3708,       265,
   47.4011,       279,
   47.4314,       259,
   47.4617,       261,
   47.4921,       267,
   47.5224,       260,
   47.5527,       275,
   47.5831,       283,
   47.6134,       265,
   47.6437,       278,
    47.674,       258,
   47.7044,       281,
   47.7347,       290,
    47.765,       272,
   47.7954,       259,
   47.8257,       277,
    47.856,       269,
   47.8863,       307,
   47.9167,       271,
    47.947,       271,
   47.9773,       312,
   48.0076,       304,
    48.038,       329,
   48.0683,       315,
   48.0986,       312,
    48.129,       365,
   48.1593,       358,
   48.1896,       350,
   48.2199,       353,
   48.2503,       342,
   48.2806,       355,
   48.3109,       327,
   48.3413,       302,
   48.3716,       317,
   48.4019,       298,
   48.4322,       289,
   48.4626,       275,
   48.4929,       279,
   48.5232,       253,
   48.5536,       268,
   48.5839,       251,
   48.6142,       229,
   48.6445,       246,
   48.6749,       251,
   48.7052,       232,
   48.7355,       268,
   48.7659,       258,
   48.7962,       254,
   48.8265,       223,
   48.8568,       235,
   48.8872,       257,
   48.9175,       239,
   48.9478,       218,
   48.9781,       258,
   49.0085,       245,
   49.0388,       249,
   49.0691,       265,
   49.0995,       251,
   49.1298,       234,
   49.1601,       264,
   49.1904,       263,
   49.2208,       234,
   49.2511,       221,
   49.2814,       238,
   49.3118,       275,
   49.3421,       225,
   49.3724,       238,
   49.4027,       238,
   49.4331,       276,
   49.4634,       227,
   49.4937,       255,
   49.5241,       237,
   49.5544,       228,
   49.5847,       248,
    49.615,       245,
   49.6454,       270,
   49.6757,       252,
    49.706,       273,
   49.7364,       229,
   49.7667,       257,
    49.797,       277,
   49.8273,       249,
   49.8577,       290,
    49.888,       277,
   49.9183,       321,
   49.9486,       299,
    49.979,       301,
   50.0093,       316,
   50.0396,       296,
     50.07,       319,
   50.1003,       300,
   50.1306,       364,
   50.1609,       335,
   50.1913,       412,
   50.2216,       444,
   50.2519,       451,
   50.2823,       451,
   50.3126,       432,
   50.3429,       418,
   50.3732,       412,
   50.4036,       356,
   50.4339,       345,
   50.4642,       293,
   50.4946,       317,
   50.5249,       253,
   50.5552,       296,
   50.5855,       310,
   50.6159,       308,
   50.6462,       322,
   50.6765,       305,
   50.7069,       307,
   50.7372,       323,
   50.7675,       289,
   50.7978,       300,
   50.8282,       301,
   50.8585,       298,
   50.8888,       284,
   50.9191,       343,
   50.9495,       332,
   50.9798,       304,
   51.0101,       355,
   51.0405,       390,
   51.0708,       373,
   51.1011,       407,
   51.1314,       429,
   51.1618,       432,
   51.1921,       432,
   51.2224,       475,
   51.2528,       433,
   51.2831,       443,
   51.3134,       400,
   51.3437,       418,
   51.3741,       406,
   51.4044,       406,
   51.4347,       352,
   51.4651,       351,
   51.4954,       339,
   51.5257,       340,
    51.556,       316,
   51.5864,       287,
   51.6167,       263,
    51.647,       299,
   51.6774,       274,
   51.7077,       279,
    51.738,       315,
   51.7683,       258,
   51.7987,       299,
    51.829,       268,
   51.8593,       304,
   51.8897,       287,
     51.92,       268,
   51.9503,       276,
   51.9806,       260,
    52.011,       283,
   52.0413,       249,
   52.0716,       278,
   52.1019,       247,
   52.1323,       242,
   52.1626,       262,
   52.1929,       255,
   52.2233,       246,
   52.2536,       236,
   52.2839,       233,
   52.3142,       246,
   52.3446,       281,
   52.3749,       236,
   52.4052,       241,
   52.4356,       217,
   52.4659,       237,
   52.4962,       253,
   52.5265,       244,
   52.5569,       287,
   52.5872,       260,
   52.6175,       271,
   52.6479,       249,
   52.6782,       227,
   52.7085,       274,
   52.7388,       258,
   52.7692,       296,
   52.7995,       252,
   52.8298,       252,
   52.8602,       266,
   52.8905,       270,
   52.9208,       275,
   52.9511,       306,
   52.9815,       266,
   53.0118,       274,
   53.0421,       295,
   53.0724,       242,
   53.1028,       299,
   53.1331,       278,
   53.1634,       293,
   53.1938,       368,
   53.2241,       311,
   53.2544,       370,
   53.2847,       394,
   53.3151,       377,
   53.3454,       408,
   53.3757,       403,
   53.4061,       407,
   53.4364,       411,
   53.4667,       385,
    53.497,       407,
   53.5274,       417,
   53.5577,       412,
    53.588,       445,
   53.6184,       475,
   53.6487,       553,
    53.679,       672,
   53.7093,       831,
   53.7397,       864,
     53.77,       897,
   53.8003,       786,
   53.8307,       759,
    53.861,       758,
   53.8913,       663,
   53.9216,       615,
    53.952,       583,
   53.9823,       436,
   54.0126,       423,
   54.0429,       352,
   54.0733,       361,
   54.1036,       367,
   54.1339,       329,
   54.1643,       298,
   54.1946,       277,
   54.2249,       282,
   54.2552,       294,
   54.2856,       266,
   54.3159,       287,
   54.3462,       269,
   54.3766,       297,
   54.4069,       280,
   54.4372,       281,
   54.4675,       288,
   54.4979,       233,
   54.5282,       310,
   54.5585,       265,
   54.5889,       264,
   54.6192,       261,
   54.6495,       280,
   54.6798,       264,
   54.7102,       279,
   54.7405,       252,
   54.7708,       268,
   54.8012,       283,
   54.8315,       277,
   54.8618,       252,
   54.8921,       258,
   54.9225,       255,
   54.9528,       246,
   54.9831,       283,
   55.0134,       244,
   55.0438,       267,
   55.0741,       259,
   55.1044,       274,
   55.1348,       282,
   55.1651,       248,
   55.1954,       259,
   55.2257,       259,
   55.2561,       278,
   55.2864,       262,
   55.3167,       265,
   55.3471,       267,
   55.3774,       266,
   55.4077,       249,
    55.438,       286,
   55.4684,       280,
   55.4987,       257,
    55.529,       250,
   55.5594,       267,
   55.5897,       276,
     55.62,       257,
   55.6503,       282,
   55.6807,       295,
    55.711,       318,
   55.7413,       322,
   55.7717,       290,
    55.802,       319,
   55.8323,       295,
   55.8626,       318,
    55.893,       295,
   55.9233,       350,
   55.9536,       351,
   55.9839,       341,
   56.0143,       322,
   56.0446,       364,
   56.0749,       370,
   56.1053,       380,
   56.1356,       365,
   56.1659,       374,
   56.1962,       381,
   56.2266,       380,
   56.2569,       419,
   56.2872,       407,
   56.3176,       397,
   56.3479,       441,
   56.3782,       453,
   56.4085,       461,
   56.4389,       475,
   56.4692,       445,
   56.4995,       496,
   56.5299,       483,
   56.5602,       524,
   56.5905,       567,
   56.6208,       601,
   56.6512,       587,
   56.6815,       643,
   56.7118,       680,
   56.7422,       641,
   56.7725,       613,
   56.8028,       620,
   56.8331,       635,
   56.8635,       666,
   56.8938,       596,
   56.9241,       586,
   56.9544,       574,
   56.9848,       565,
   57.0151,       495,
   57.0454,       489,
   57.0758,       433,
   57.1061,       392,
   57.1364,       390,
   57.1667,       388,
   57.1971,       398,
   57.2274,       378,
   57.2577,       354,
   57.2881,       325,
   57.3184,       367,
   57.3487,       355,
    57.379,       353,
   57.4094,       323,
   57.4397,       400,
     57.47,       349,
   57.5004,       375,
   57.5307,       392,
    57.561,       405,
   57.5913,       397,
   57.6217,       389,
    57.652,       431,
   57.6823,       460,
   57.7127,       414,
    57.743,       397,
   57.7733,       425,
   57.8036,       408,
    57.834,       400,
   57.8643,       407,
   57.8946,       423,
    57.925,       376,
   57.9553,       403,
   57.9856,       412,
   58.0159,       405,
   58.0463,       402,
   58.0766,       387,
   58.1069,       379,
   58.1372,       365,
   58.1676,       340,
   58.1979,       318,
   58.2282,       324,
   58.2586,       313,
   58.2889,       341,
   58.3192,       325,
   58.3495,       338,
   58.3799,       262,
   58.4102,       307,
   58.4405,       310,
   58.4709,       319,
   58.5012,       335,
   58.5315,       338,
   58.5618,       288,
   58.5922,       328,
   58.6225,       329,
   58.6528,       298,
   58.6832,       294,
   58.7135,       322,
   58.7438,       330,
   58.7741,       293,
   58.8045,       355,
   58.8348,       376,
   58.8651,       343,
   58.8955,       401,
   58.9258,       419,
   58.9561,       424,
   58.9864,       474,
   59.0168,       508,
   59.0471,       442,
   59.0774,       443,
   59.1077,       413,
   59.1381,       434,
   59.1684,       412,
   59.1987,       325,
   59.2291,       368,
   59.2594,       374,
   59.2897,       339,
     59.32,       346,
   59.3504,       309,
   59.3807,       301,
    59.411,       327,
   59.4414,       298,
   59.4717,       314,
    59.502,       274,
   59.5323,       283,
   59.5627,       304,
    59.593,       292,
   59.6233,       264,
   59.6537,       302,
    59.684,       295,
   59.7143,       297,
   59.7446,       266,
    59.775,       265,
   59.8053,       269,
   59.8356,       256,
    59.866,       258,
   59.8963,       258,
   59.9266,       286,
   59.9569,       268,
   59.9873,       252,
   60.0176,       258,
   60.0479,       261,
   60.0782,       262,
   60.1086,       265,
   60.1389,       253,
   60.1692,       270,
   60.1996,       264,
   60.2299,       261,
   60.2602,       232,
   60.2905,       249,
   60.3209,       250,
   60.3512,       263,
   60.3815,       272,
   60.4119,       260,
   60.4422,       234,
   60.4725,       243,
   60.5028,       260,
   60.5332,       238,
   60.5635,       246,
   60.5938,       248,
   60.6242,       232,
   60.6545,       238,
   60.6848,       243,
   60.7151,       234,
   60.7455,       259,
   60.7758,       266,
   60.8061,       222,
   60.8365,       235,
   60.8668,       266,
   60.8971,       238,
   60.9274,       274,
   60.9578,       236,
   60.9881,       244,
   61.0184,       257,
   61.0487,       254,
   61.0791,       260,
   61.1094,       237,
   61.1397,       240,
   61.1701,       279,
   61.2004,       283,
   61.2307,       281,
    61.261,       294,
   61.2914,       301,
   61.3217,       259,
    61.352,       260,
   61.3824,       281,
   61.4127,       267,
    61.443,       288,
   61.4733,       292,
   61.5037,       307,
    61.534,       314,
   61.5643,       353,
   61.5947,       355,
    61.625,       437,
   61.6553,       469,
   61.6856,       438,
    61.716,       481,
   61.7463,       427,
   61.7766,       383,
    61.807,       375,
   61.8373,       394,
   61.8676,       367,
   61.8979,       342,
   61.9283,       318,
   61.9586,       283,
   61.9889,       303,
   62.0192,       298,
   62.0496,       286,
   62.0799,       281,
   62.1102,       289,
   62.1406,       287,
   62.1709,       293,
   62.2012,       311,
   62.2315,       350,
   62.2619,       329,
   62.2922,       317,
   62.3225,       362,
   62.3529,       360,
   62.3832,       381,
   62.4135,       349,
   62.4438,       316,
   62.4742,       318,
   62.5045,       304,
   62.5348,       285,
   62.5652,       267,
   62.5955,       232,
   62.6258,       270,
   62.6561,       271,
   62.6865,       247,
   62.7168,       214,
   62.7471,       241,
   62.7775,       250,
   62.8078,       244,
   62.8381,       229,
   62.8684,       259,
   62.8988,       206,
   62.9291,       223,
   62.9594,       213,
   62.9898,       238,
   63.0201,       208,
   63.0504,       209,
   63.0807,       266,
   63.1111,       215,
   63.1414,       225,
   63.1717,       222,
    63.202,       232,
   63.2324,       220,
   63.2627,       216,
    63.293,       232,
   63.3234,       236,
   63.3537,       221,
    63.384,       216,
   63.4143,       211,
   63.4447,       249,
    63.475,       266,
   63.5053,       247,
   63.5357,       219,
    63.566,       219,
   63.5963,       203,
   63.6266,       210,
    63.657,       207,
   63.6873,       241,
   63.7176,       235,
    63.748,       181,
   63.7783,       204,
   63.8086,       218,
   63.8389,       208,
   63.8693,       197,
   63.8996,       230,
   63.9299,       193,
   63.9603,       209,
   63.9906,       200,
   64.0209,       216,
   64.0512,       196,
   64.0816,       209,
   64.1119,       213,
   64.1422,       196,
   64.1725,       198,
   64.2029,       217,
   64.2332,       179,
   64.2635,       210,
   64.2939,       207,
   64.3242,       201,
   64.3545,       187,
   64.3848,       211,
   64.4152,       184,
   64.4455,       205,
   64.4758,       194,
   64.5062,       200,
   64.5365,       203,
   64.5668,       207,
   64.5971,       189,
   64.6275,       223,
   64.6578,       216,
   64.6881,       184,
   64.7185,       215,
   64.7488,       215,
   64.7791,       199,
   64.8094,       211,
   64.8398,       216,
   64.8701,       193,
   64.9004,       227,
   64.9308,       206,
   64.9611,       202,
   64.9914,       192,
   65.0217,       206,
   65.0521,       206,
   65.0824,       222,
   65.1127,       224,
    65.143,       222,
   65.1734,       204,
   65.2037,       215,
    65.234,       199,
   65.2644,       223,
   65.2947,       204,
    65.325,       196,
   65.3553,       209,
   65.3857,       219,
    65.416,       174,
   65.4463,       188,
   65.4767,       189,
    65.507,       209,
   65.5373,       186,
   65.5676,       185,
    65.598,       178,
   65.6283,       199,
   65.6586,       177,
    65.689,       169,
   65.7193,       202,
   65.7496,       175,
   65.7799,       183,
   65.8103,       195,
   65.8406,       187,
   65.8709,       201,
   65.9013,       202,
   65.9316,       207,
   65.9619,       197,
   65.9922,       207,
   66.0226,       204,
   66.0529,       205,
   66.0832,       193,
   66.1135,       193,
   66.1439,       207,
   66.1742,       221,
   66.2045,       211,
   66.2349,       203,
   66.2652,       226,
   66.2955,       223,
   66.3258,       224,
   66.3562,       194,
   66.3865,       234,
   66.4168,       225,
   66.4472,       210,
   66.4775,       234,
   66.5078,       226,
   66.5381,       208,
   66.5685,       243,
   66.5988,       222,
   66.6291,       202,
   66.6595,       215,
   66.6898,       217,
   66.7201,       203,
   66.7504,       189,
   66.7808,       207,
   66.8111,       211,
   66.8414,       201,
   66.8718,       197,
   66.9021,       212,
   66.9324,       197,
   66.9627,       188,
   66.9931,       198,
   67.0234,       205,
   67.0537,       188,
    67.084,       212,
   67.1144,       197,
   67.1447,       208,
    67.175,       234,
   67.2054,       194,
   67.2357,       178,
    67.266,       185,
   67.2963,       198,
   67.3267,       227,
    67.357,       216,
   67.3873,       218,
   67.4177,       178,
    67.448,       194,
   67.4783,       196,
   67.5086,       211,
    67.539,       189,
   67.5693,       194,
   67.5996,       205,
     67.63,       180,
   67.6603,       204,
   67.6906,       208,
   67.7209,       211,
   67.7513,       181,
   67.7816,       232,
   67.8119,       224,
   67.8423,       190,
   67.8726,       225,
   67.9029,       210,
   67.9332,       215,
   67.9636,       224,
   67.9939,       224,
   68.0242,       185,
   68.0546,       205,
   68.0849,       204,
   68.1152,       201,
   68.1455,       179,
   68.1759,       200,
   68.2062,       205,
   68.2365,       191,
   68.2668,       218,
   68.2972,       232,
   68.3275,       191,
   68.3578,       225,
   68.3882,       181,
   68.4185,       213,
   68.4488,       218,
   68.4791,       211,
   68.5095,       216,
   68.5398,       244,
   68.5701,       208,
   68.6005,       233,
   68.6308,       241,
   68.6611,       237,
   68.6914,       245,
   68.7218,       244,
   68.7521,       225,
   68.7824,       209,
   68.8128,       238,
   68.8431,       239,
   68.8734,       199,
   68.9037,       229,
   68.9341,       186,
   68.9644,       232,
   68.9947,       206,
   69.0251,       212,
   69.0554,       204,
   69.0857,       216,
    69.116,       209,
   69.1464,       196,
   69.1767,       193,
    69.207,       196,
   69.2373,       190,
   69.2677,       181,
    69.298,       205,
   69.3283,       203,
   69.3587,       212,
    69.389,       196,
   69.4193,       208,
   69.4496,       201,
     69.48,       179,
   69.5103,       208,
   69.5406,       192,
    69.571,       198,
   69.6013,       185,
   69.6316,       200,
   69.6619,       217,
   69.6923,       221,
   69.7226,       188,
   69.7529,       189,
   69.7833,       212,
   69.8136,       212,
   69.8439,       210,
   69.8742,       202,
   69.9046,       221,
   69.9349,       210,
   69.9652,       226,
   69.9956,       250,
