;RAW4.00
[RawHeader]
Date=04/21/2019
EstimatedTotalTime=2311.21
FurtherDQLReading=0
HardwareIndicator=65519
MeasuredTotalTime=2311.21
MeasurementFlag=1
NumberOfMeasuredRanges=1
NumberOfRanges=1
Time=20:09:59

[VarInfo]
Type=USER
Flags=0
Value=Bruker Service

[VarInfo]
Type=SAMPLEID
Flags=0
Value=Commander Sample ID

[VarInfo]
Type=COMMENT
Flags=0
Value=

[VarInfo]
Type=UTF
Flags=0
Value=

[VarInfo]
Type=CREATOR
Flags=0
Value=BrmlToV4Converter

[VarInfo]
Type=CREATOR_VERSION
Flags=0
Value=7.3.0.0

[HardwareConfiguration]
AbsorptionFactor=9999
ActivateAbsorber=0
Alpha1=1.78897
Alpha2=1.79285
AlphaAverage=1.79026
AlphaRatio=0.5
Analyzer=0
Anode=Co
AntiScatteringSlit=9999
BeamOpticsFlags=0
Beta=1.62079
BetaRelativeIntensity=0
DeactivateAbsorber=0
DetectorSlit=9999
DivergenceSlit=1
GoniometerControl=0
GoniometerDiameter=282
GoniometerModel=256
GoniometerStage=7
Monochromator=0
NearSampleSlit=9999
PrimarySollerSlit=9999
SampleChanger=0
SecondSollerSlit=9999
SynchronousAxis=0
ThinFilmAttachment=9999
WaveUnit=A

[RangeHeader]
ActuallyUsedLambda=1.79026
AdditionalDetectorMask=257
DataRecordLength=4
DelayTime=0
DisplayPlaneNumber=0
EstimatedScanTime=2311
ExtraParametersMask=0
GeneratorCurrent=10
GeneratorVoltage=30
Increment=0.0303281
Increment3=0
NumberOfCompletedData=2144
NumberOfCounts=1
NumberOfDetectors=0
NumberOfDrives=2
NumberOfEncoderDrives=0
NumberOfMeasuredData=2144
NumberOfVaryingParameters=0
RangeStartTime=0
RotationSpeed=1
ScanMode=1
ScanType=Locked Coupled
SimulatedMeasConditions=0
SlitChangerIn=0
SmootingWidth=0
Start=5.00234
Steps=2144
SynchronousRotation=0
Time=165

[VarInfo]
Type=PSD_DISCRIM
Flags=0
Value=0.11;0.25

[PSD]
ActualTwoTheta=9999
FirstUsedChannel=0
FixedPSD=0
PSDOpening=5.00414
PSDType=5

[Drive]
DriveFlags=1
DriveName=2Theta
DriveNumber=2
DriveOffset=0
OffsetIndex=0
OscillationAmplitude=0
OscillationSpeed=0
StartPosition=5.00234

[Drive]
DriveFlags=1
DriveName=Theta
DriveNumber=1
DriveOffset=0
OffsetIndex=0
OscillationAmplitude=0
OscillationSpeed=0
StartPosition=2.50117

[Data]
     Angle,       PSD,
   5.00234,      8191,
   5.03267,      8174,
     5.063,      8079,
   5.09333,      7954,
   5.12365,      7959,
   5.15398,      7677,
   5.18431,      7646,
   5.21464,      7508,
   5.24497,      7414,
   5.27529,      7467,
   5.30562,      7250,
   5.33595,      7239,
   5.36628,      7149,
   5.39661,      6862,
   5.42694,      6801,
   5.45726,      6657,
   5.48759,      6716,
   5.51792,      6696,
   5.54825,      6472,
   5.57858,      6308,
    5.6089,      6235,
   5.63923,      6249,
   5.66956,      6091,
   5.69989,      6097,
   5.73022,      6066,
   5.76055,      5916,
   5.79087,      5767,
    5.8212,      5821,
   5.85153,      5563,
   5.88186,      5569,
   5.91219,      5417,
   5.94251,      5267,
   5.97284,      5070,
   6.00317,      5050,
    6.0335,      5146,
   6.06383,      4976,
   6.09415,      4911,
   6.12448,      4944,
   6.15481,      4863,
   6.18514,      4790,
   6.21547,      4723,
    6.2458,      4576,
   6.27612,      4489,
   6.30645,      4493,
   6.33678,      4278,
   6.36711,      4386,
   6.39744,      4301,
   6.42776,      4130,
   6.45809,      4168,
   6.48842,      4208,
   6.51875,      4063,
   6.54908,      4126,
    6.5794,      3958,
   6.60973,      3918,
   6.64006,      4003,
   6.67039,      3841,
   6.70072,      3803,
   6.73105,      3792,
   6.76137,      3747,
    6.7917,      3777,
   6.82203,      3630,
   6.85236,      3674,
   6.88269,      3592,
   6.91301,      3698,
   6.94334,      3440,
   6.97367,      3443,
     7.004,      3480,
   7.03433,      3333,
   7.06466,      3374,
   7.09498,      3383,
   7.12531,      3302,
   7.15564,      3230,
   7.18597,      3206,
    7.2163,      3200,
   7.24662,      3183,
   7.27695,      3018,
   7.30728,      3140,
   7.33761,      2997,
   7.36794,      2907,
   7.39826,      2961,
   7.42859,      2953,
   7.45892,      2945,
   7.48925,      2852,
   7.51958,      2773,
   7.54991,      2811,
   7.58023,      2771,
   7.61056,      2677,
   7.64089,      2634,
   7.67122,      2662,
   7.70155,      2662,
   7.73187,      2668,
    7.7622,      2622,
   7.79253,      2525,
   7.82286,      2496,
   7.85319,      2573,
   7.88352,      2582,
   7.91384,      2540,
   7.94417,      2502,
    7.9745,      2399,
   8.00483,      2434,
   8.03516,      2484,
   8.06548,      2369,
   8.09581,      2422,
   8.12614,      2233,
   8.15647,      2364,
    8.1868,      2375,
   8.21712,      2314,
   8.24745,      2361,
   8.27778,      2242,
   8.30811,      2188,
   8.33844,      2244,
   8.36877,      2176,
   8.39909,      2086,
   8.42942,      2114,
   8.45975,      2148,
   8.49008,      2151,
   8.52041,      2068,
   8.55073,      2100,
   8.58106,      2019,
   8.61139,      2062,
   8.64172,      2066,
   8.67205,      2010,
   8.70237,      2042,
    8.7327,      2048,
   8.76303,      1931,
   8.79336,      1885,
   8.82369,      1919,
   8.85402,      1833,
   8.88434,      1895,
   8.91467,      1832,
     8.945,      1897,
   8.97533,      1884,
   9.00566,      1852,
   9.03598,      1854,
   9.06631,      1809,
   9.09664,      1826,
   9.12697,      1749,
    9.1573,      1849,
   9.18763,      1802,
   9.21795,      1789,
   9.24828,      1693,
   9.27861,      1787,
   9.30894,      1766,
   9.33927,      1745,
   9.36959,      1639,
   9.39992,      1762,
   9.43025,      1708,
   9.46058,      1697,
   9.49091,      1661,
   9.52123,      1720,
   9.55156,      1695,
   9.58189,      1690,
   9.61222,      1685,
   9.64255,      1675,
   9.67288,      1596,
    9.7032,      1655,
   9.73353,      1644,
   9.76386,      1641,
   9.79419,      1618,
   9.82452,      1591,
   9.85484,      1711,
   9.88517,      1628,
    9.9155,      1553,
   9.94583,      1552,
   9.97616,      1597,
   10.0065,      1548,
   10.0368,      1586,
   10.0671,      1635,
   10.0975,      1553,
   10.1278,      1579,
   10.1581,      1522,
   10.1885,      1604,
   10.2188,      1545,
   10.2491,      1496,
   10.2794,      1552,
   10.3098,      1505,
   10.3401,      1496,
   10.3704,      1483,
   10.4008,      1592,
   10.4311,      1544,
   10.4614,      1569,
   10.4917,      1547,
   10.5221,      1467,
   10.5524,      1540,
   10.5827,      1543,
    10.613,      1508,
   10.6434,      1507,
   10.6737,      1428,
    10.704,      1508,
   10.7344,      1481,
   10.7647,      1544,
    10.795,      1473,
   10.8253,      1507,
   10.8557,      1480,
    10.886,      1517,
   10.9163,      1383,
   10.9467,      1423,
    10.977,      1449,
   11.0073,      1489,
   11.0376,      1353,
    11.068,      1408,
   11.0983,      1437,
   11.1286,      1434,
    11.159,      1406,
   11.1893,      1408,
   11.2196,      1426,
   11.2499,      1345,
   11.2803,      1411,
   11.3106,      1411,
   11.3409,      1422,
   11.3713,      1423,
   11.4016,      1410,
   11.4319,      1437,
   11.4622,      1391,
   11.4926,      1373,
   11.5229,      1288,
   11.5532,      1370,
   11.5835,      1364,
   11.6139,      1442,
   11.6442,      1350,
   11.6745,      1387,
   11.7049,      1381,
   11.7352,      1357,
   11.7655,      1361,
   11.7958,      1363,
   11.8262,      1325,
   11.8565,      1383,
   11.8868,      1304,
   11.9172,      1379,
   11.9475,      1286,
   11.9778,      1350,
   12.0081,      1320,
   12.0385,      1347,
   12.0688,      1368,
   12.0991,      1338,
   12.1295,      1286,
   12.1598,      1327,
   12.1901,      1312,
   12.2204,      1329,
   12.2508,      1379,
   12.2811,      1417,
   12.3114,      1388,
   12.3418,      1354,
   12.3721,      1360,
   12.4024,      1301,
   12.4327,      1210,
   12.4631,      1339,
   12.4934,      1336,
   12.5237,      1356,
    12.554,      1305,
   12.5844,      1402,
   12.6147,      1302,
    12.645,      1373,
   12.6754,      1353,
   12.7057,      1333,
    12.736,      1349,
   12.7663,      1249,
   12.7967,      1218,
    12.827,      1262,
   12.8573,      1303,
   12.8877,      1313,
    12.918,      1278,
   12.9483,      1315,
   12.9786,      1296,
    13.009,      1335,
   13.0393,      1303,
   13.0696,      1284,
      13.1,      1311,
   13.1303,      1266,
   13.1606,      1327,
   13.1909,      1298,
   13.2213,      1293,
   13.2516,      1298,
   13.2819,      1290,
   13.3123,      1301,
   13.3426,      1374,
   13.3729,      1252,
   13.4032,      1241,
   13.4336,      1393,
   13.4639,      1502,
   13.4942,      1539,
   13.5245,      1527,
   13.5549,      1569,
   13.5852,      1577,
   13.6155,      1390,
   13.6459,      1268,
   13.6762,      1347,
   13.7065,      1319,
   13.7368,      1250,
   13.7672,      1240,
   13.7975,      1313,
   13.8278,      1295,
   13.8582,      1287,
   13.8885,      1215,
   13.9188,      1302,
   13.9491,      1253,
   13.9795,      1240,
   14.0098,      1238,
   14.0401,      1278,
   14.0705,      1305,
   14.1008,      1180,
   14.1311,      1263,
   14.1614,      1185,
   14.1918,      1175,
   14.2221,      1273,
   14.2524,      1237,
   14.2828,      1218,
   14.3131,      1284,
   14.3434,      1297,
   14.3737,      1257,
   14.4041,      1240,
   14.4344,      1266,
   14.4647,      1242,
   14.4951,      1190,
   14.5254,      1182,
   14.5557,      1186,
    14.586,      1216,
   14.6164,      1211,
   14.6467,      1298,
    14.677,      1230,
   14.7073,      1114,
   14.7377,      1169,
    14.768,      1151,
   14.7983,      1216,
   14.8287,      1220,
    14.859,      1150,
   14.8893,      1172,
   14.9196,      1172,
     14.95,      1138,
   14.9803,      1141,
   15.0106,      1135,
    15.041,      1180,
   15.0713,      1173,
   15.1016,      1205,
   15.1319,      1203,
   15.1623,      1161,
   15.1926,      1175,
   15.2229,      1183,
   15.2533,      1165,
   15.2836,      1106,
   15.3139,      1214,
   15.3442,      1089,
   15.3746,      1124,
   15.4049,      1131,
   15.4352,      1162,
   15.4656,      1114,
   15.4959,      1168,
   15.5262,      1141,
   15.5565,      1115,
   15.5869,      1177,
   15.6172,      1094,
   15.6475,      1155,
   15.6778,      1180,
   15.7082,      1146,
   15.7385,      1072,
   15.7688,      1131,
   15.7992,      1105,
   15.8295,      1126,
   15.8598,      1124,
   15.8901,      1116,
   15.9205,      1101,
   15.9508,      1128,
   15.9811,      1146,
   16.0115,      1190,
   16.0418,      1084,
   16.0721,      1228,
   16.1024,      1046,
   16.1328,      1088,
   16.1631,      1096,
   16.1934,      1134,
   16.2238,      1141,
   16.2541,      1048,
   16.2844,      1129,
   16.3147,      1106,
   16.3451,      1165,
   16.3754,      1143,
   16.4057,      1185,
   16.4361,      1148,
   16.4664,      1143,
   16.4967,      1123,
    16.527,      1050,
   16.5574,      1034,
   16.5877,      1131,
    16.618,      1122,
   16.6483,      1181,
   16.6787,      1139,
    16.709,      1129,
   16.7393,      1198,
   16.7697,      1103,
      16.8,      1062,
   16.8303,      1071,
   16.8606,      1070,
    16.891,      1119,
   16.9213,      1110,
   16.9516,      1094,
    16.982,      1089,
   17.0123,      1053,
   17.0426,      1053,
   17.0729,      1051,
   17.1033,      1034,
   17.1336,      1049,
   17.1639,      1048,
   17.1943,      1072,
   17.2246,      1021,
   17.2549,      1056,
   17.2852,      1129,
   17.3156,      1029,
   17.3459,      1016,
   17.3762,      1075,
   17.4066,      1024,
   17.4369,      1105,
   17.4672,      1072,
   17.4975,      1016,
   17.5279,      1036,
   17.5582,      1044,
   17.5885,      1032,
   17.6188,      1038,
   17.6492,      1028,
   17.6795,      1039,
   17.7098,      1041,
   17.7402,      1058,
   17.7705,       987,
   17.8008,      1005,
   17.8311,      1005,
   17.8615,      1058,
   17.8918,      1056,
   17.9221,      1036,
   17.9525,       983,
   17.9828,      1061,
   18.0131,      1082,
   18.0434,      1012,
   18.0738,      1009,
   18.1041,      1025,
   18.1344,      1001,
   18.1648,      1014,
   18.1951,      1050,
   18.2254,       983,
   18.2557,      1064,
   18.2861,      1035,
   18.3164,      1031,
   18.3467,      1031,
   18.3771,      1067,
   18.4074,      1096,
   18.4377,      1025,
    18.468,       993,
   18.4984,       976,
   18.5287,      1026,
    18.559,      1055,
   18.5893,      1071,
   18.6197,      1030,
     18.65,      1034,
   18.6803,       991,
   18.7107,       955,
    18.741,       974,
   18.7713,      1014,
   18.8016,      1001,
    18.832,      1077,
   18.8623,      1033,
   18.8926,      1026,
    18.923,      1002,
   18.9533,       926,
   18.9836,      1066,
   19.0139,      1038,
   19.0443,      1028,
   19.0746,       980,
   19.1049,      1051,
   19.1353,       981,
   19.1656,       975,
   19.1959,      1040,
   19.2262,       939,
   19.2566,      1046,
   19.2869,       964,
   19.3172,       942,
   19.3476,       996,
   19.3779,      1064,
   19.4082,      1002,
   19.4385,      1004,
   19.4689,       998,
   19.4992,      1018,
   19.5295,      1030,
   19.5599,      1005,
   19.5902,      1006,
   19.6205,      1007,
   19.6508,      1019,
   19.6812,       977,
   19.7115,       964,
   19.7418,       981,
   19.7721,       948,
   19.8025,       955,
   19.8328,       990,
   19.8631,       990,
   19.8935,       991,
   19.9238,       988,
   19.9541,       987,
   19.9844,      1025,
   20.0148,       954,
   20.0451,       924,
   20.0754,       940,
   20.1058,      1012,
   20.1361,      1020,
   20.1664,      1021,
   20.1967,      1097,
   20.2271,      1037,
   20.2574,      1005,
   20.2877,       994,
   20.3181,       959,
   20.3484,       962,
   20.3787,       997,
    20.409,       990,
   20.4394,       968,
   20.4697,       977,
      20.5,       978,
   20.5304,       963,
   20.5607,       985,
    20.591,       964,
   20.6213,       954,
   20.6517,      1021,
    20.682,      1053,
   20.7123,       988,
   20.7426,      1023,
    20.773,      1068,
   20.8033,      1041,
   20.8336,      1044,
    20.864,      1027,
   20.8943,       940,
   20.9246,       944,
   20.9549,       928,
   20.9853,       960,
   21.0156,      1002,
   21.0459,       923,
   21.0763,       933,
   21.1066,      1051,
   21.1369,       956,
   21.1672,       977,
   21.1976,       927,
   21.2279,       990,
   21.2582,      1011,
   21.2886,      1010,
   21.3189,       981,
   21.3492,       962,
   21.3795,       992,
   21.4099,       981,
   21.4402,       988,
   21.4705,       926,
   21.5009,       962,
   21.5312,       962,
   21.5615,       975,
   21.5918,       938,
   21.6222,       939,
   21.6525,       962,
   21.6828,       972,
   21.7131,      1005,
   21.7435,      1001,
   21.7738,       972,
   21.8041,       936,
   21.8345,       917,
   21.8648,      1001,
   21.8951,       950,
   21.9254,      1024,
   21.9558,      1018,
   21.9861,       959,
   22.0164,       957,
   22.0468,       990,
   22.0771,       925,
   22.1074,       994,
   22.1377,       946,
   22.1681,       997,
   22.1984,      1008,
   22.2287,       964,
   22.2591,       966,
   22.2894,       958,
   22.3197,       999,
     22.35,       972,
   22.3804,      1009,
   22.4107,      1021,
    22.441,       970,
   22.4714,       978,
   22.5017,      1008,
    22.532,       996,
   22.5623,      1021,
   22.5927,      1004,
    22.623,       960,
   22.6533,      1098,
   22.6836,      1046,
    22.714,      1045,
   22.7443,      1022,
   22.7746,      1095,
    22.805,      1074,
   22.8353,      1112,
   22.8656,      1126,
   22.8959,      1138,
   22.9263,      1220,
   22.9566,      1158,
   22.9869,      1276,
   23.0173,      1159,
   23.0476,      1225,
   23.0779,      1230,
   23.1082,      1221,
   23.1386,      1241,
   23.1689,      1220,
   23.1992,      1138,
   23.2296,      1203,
   23.2599,      1206,
   23.2902,      1141,
   23.3205,      1073,
   23.3509,      1139,
   23.3812,      1125,
   23.4115,      1063,
   23.4419,      1080,
   23.4722,      1132,
   23.5025,      1037,
   23.5328,      1084,
   23.5632,      1053,
   23.5935,      1098,
   23.6238,      1090,
   23.6541,      1075,
   23.6845,      1127,
   23.7148,      1080,
   23.7451,      1078,
   23.7755,      1071,
   23.8058,      1053,
   23.8361,      1071,
   23.8664,       996,
   23.8968,      1047,
   23.9271,      1067,
   23.9574,      1095,
   23.9878,      1062,
   24.0181,      1115,
   24.0484,      1121,
   24.0787,      1168,
   24.1091,      1338,
   24.1394,      1439,
   24.1697,      1483,
   24.2001,      1376,
   24.2304,      1257,
   24.2607,      1264,
    24.291,      1256,
   24.3214,      1292,
   24.3517,      1138,
    24.382,      1134,
   24.4124,      1038,
   24.4427,      1054,
    24.473,      1048,
   24.5033,      1057,
   24.5337,      1075,
    24.564,      1076,
   24.5943,      1083,
   24.6246,      1080,
    24.655,      1019,
   24.6853,      1022,
   24.7156,       970,
    24.746,       997,
   24.7763,       968,
   24.8066,      1040,
   24.8369,       950,
   24.8673,       884,
   24.8976,      1016,
   24.9279,       931,
   24.9583,       970,
   24.9886,       969,
   25.0189,       927,
   25.0492,       944,
   25.0796,       926,
   25.1099,       912,
   25.1402,       870,
   25.1706,       937,
   25.2009,       947,
   25.2312,       936,
   25.2615,       951,
   25.2919,      1003,
   25.3222,       921,
   25.3525,       931,
   25.3829,       967,
   25.4132,       961,
   25.4435,       945,
   25.4738,       937,
   25.5042,       924,
   25.5345,      1033,
   25.5648,       938,
   25.5952,       950,
   25.6255,       916,
   25.6558,       941,
   25.6861,       931,
   25.7165,       973,
   25.7468,       945,
   25.7771,       950,
   25.8074,       955,
   25.8378,       907,
   25.8681,       945,
   25.8984,       893,
   25.9288,       962,
   25.9591,       950,
   25.9894,       935,
   26.0197,       962,
   26.0501,       964,
   26.0804,       936,
   26.1107,       890,
   26.1411,       909,
   26.1714,       898,
   26.2017,       908,
    26.232,       876,
   26.2624,       861,
   26.2927,       885,
    26.323,       872,
   26.3534,       887,
   26.3837,       934,
    26.414,       951,
   26.4443,       902,
   26.4747,       953,
    26.505,       920,
   26.5353,       955,
   26.5657,       918,
    26.596,       914,
   26.6263,       990,
   26.6566,       904,
    26.687,       992,
   26.7173,       970,
   26.7476,       952,
   26.7779,      1010,
   26.8083,      1129,
   26.8386,      1176,
   26.8689,      1352,
   26.8993,      1394,
   26.9296,      1399,
   26.9599,      1346,
   26.9902,      1229,
   27.0206,      1261,
   27.0509,      1247,
   27.0812,      1396,
   27.1116,      1486,
   27.1419,      1555,
   27.1722,      1770,
   27.2025,      1848,
   27.2329,      1962,
   27.2632,      1851,
   27.2935,      1884,
   27.3239,      1675,
   27.3542,      1532,
   27.3845,      1385,
   27.4148,      1228,
   27.4452,      1212,
   27.4755,      1127,
   27.5058,      1167,
   27.5362,      1154,
   27.5665,      1084,
   27.5968,      1070,
   27.6271,      1065,
   27.6575,      1010,
   27.6878,       978,
   27.7181,      1047,
   27.7484,       971,
   27.7788,       935,
   27.8091,       960,
   27.8394,       854,
   27.8698,       953,
   27.9001,       878,
   27.9304,       900,
   27.9607,       967,
   27.9911,       990,
   28.0214,       875,
   28.0517,       896,
   28.0821,       925,
   28.1124,       899,
   28.1427,       914,
    28.173,       879,
   28.2034,       877,
   28.2337,       894,
    28.264,       884,
   28.2944,       876,
   28.3247,       923,
    28.355,       885,
   28.3853,       908,
   28.4157,       862,
    28.446,       889,
   28.4763,       872,
   28.5067,       845,
    28.537,       930,
   28.5673,       837,
   28.5976,       862,
    28.628,       886,
   28.6583,       862,
   28.6886,       875,
   28.7189,       886,
   28.7493,       920,
   28.7796,       927,
   28.8099,       868,
   28.8403,       888,
   28.8706,       835,
   28.9009,       893,
   28.9312,       913,
   28.9616,       913,
   28.9919,       858,
   29.0222,       879,
   29.0526,       839,
   29.0829,       884,
   29.1132,       856,
   29.1435,       924,
   29.1739,       847,
   29.2042,       961,
   29.2345,       828,
   29.2649,       880,
   29.2952,       854,
   29.3255,       891,
   29.3558,       858,
   29.3862,       861,
   29.4165,       853,
   29.4468,       902,
   29.4772,       946,
   29.5075,       874,
   29.5378,       893,
   29.5681,       849,
   29.5985,       889,
   29.6288,       858,
   29.6591,       891,
   29.6894,       863,
   29.7198,       872,
   29.7501,       825,
   29.7804,       897,
   29.8108,       892,
   29.8411,       860,
   29.8714,       884,
   29.9017,       874,
   29.9321,       876,
   29.9624,       937,
   29.9927,       915,
   30.0231,       913,
   30.0534,       926,
   30.0837,       928,
    30.114,       959,
   30.1444,       943,
   30.1747,       968,
    30.205,       977,
   30.2354,       962,
   30.2657,      1035,
    30.296,      1019,
   30.3263,      1102,
   30.3567,      1166,
    30.387,      1263,
   30.4173,      1465,
   30.4477,      1777,
    30.478,      2188,
   30.5083,      2878,
   30.5386,      3144,
    30.569,      3129,
   30.5993,      2722,
   30.6296,      2293,
     30.66,      1751,
   30.6903,      1477,
   30.7206,      1275,
   30.7509,      1161,
   30.7813,      1110,
   30.8116,      1085,
   30.8419,      1051,
   30.8722,       922,
   30.9026,      1042,
   30.9329,      1011,
   30.9632,      1123,
   30.9936,      1213,
   31.0239,      1312,
   31.0542,      1411,
   31.0845,      1414,
   31.1149,      1306,
   31.1452,      1213,
   31.1755,      1104,
   31.2059,      1040,
   31.2362,      1057,
   31.2665,       989,
   31.2968,      1140,
   31.3272,      1127,
   31.3575,      1152,
   31.3878,      1160,
   31.4182,      1154,
   31.4485,      1244,
   31.4788,      1178,
   31.5091,      1161,
   31.5395,      1278,
   31.5698,      1381,
   31.6001,      1348,
   31.6305,      1564,
   31.6608,      1747,
   31.6911,      1864,
   31.7214,      2036,
   31.7518,      1851,
   31.7821,      1648,
   31.8124,      1442,
   31.8427,      1305,
   31.8731,      1181,
   31.9034,      1138,
   31.9337,      1026,
   31.9641,      1083,
   31.9944,       961,
   32.0247,       967,
    32.055,       924,
   32.0854,       968,
   32.1157,       964,
    32.146,       904,
   32.1764,       961,
   32.2067,       863,
    32.237,       917,
   32.2673,       885,
   32.2977,       906,
    32.328,       811,
   32.3583,       888,
   32.3887,       877,
    32.419,       894,
   32.4493,       871,
   32.4796,       877,
     32.51,       876,
   32.5403,       869,
   32.5706,       975,
    32.601,       902,
   32.6313,       871,
   32.6616,       911,
   32.6919,       841,
   32.7223,       861,
   32.7526,       862,
   32.7829,       837,
   32.8132,       852,
   32.8436,       874,
   32.8739,       854,
   32.9042,       817,
   32.9346,       867,
   32.9649,       802,
   32.9952,       841,
   33.0255,       795,
   33.0559,       797,
   33.0862,       867,
   33.1165,       785,
   33.1469,       803,
   33.1772,       817,
   33.2075,       850,
   33.2378,       789,
   33.2682,       823,
   33.2985,       826,
   33.3288,       796,
   33.3592,       846,
   33.3895,       836,
   33.4198,       814,
   33.4501,       838,
   33.4805,       859,
   33.5108,       842,
   33.5411,       832,
   33.5715,       877,
   33.6018,       830,
   33.6321,       886,
   33.6624,       871,
   33.6928,       892,
   33.7231,       895,
   33.7534,       895,
   33.7837,       964,
   33.8141,       941,
   33.8444,      1035,
   33.8747,      1077,
   33.9051,      1160,
   33.9354,      1233,
   33.9657,      1315,
    33.996,      1353,
   34.0264,      1284,
   34.0567,      1242,
    34.087,      1314,
   34.1174,      1256,
   34.1477,      1377,
    34.178,      1497,
   34.2083,      1716,
   34.2387,      2173,
    34.269,      3022,
   34.2993,      4190,
   34.3297,      5145,
     34.36,      5102,
   34.3903,      4767,
   34.4206,      4171,
    34.451,      3496,
   34.4813,      3392,
   34.5116,      3339,
    34.542,      3729,
   34.5723,      4341,
   34.6026,      5115,
   34.6329,      6412,
   34.6633,      7381,
   34.6936,      8592,
   34.7239,      9434,
   34.7542,     10176,
   34.7846,     10641,
   34.8149,     10297,
   34.8452,     10013,
   34.8756,      9147,
   34.9059,      8330,
   34.9362,      7346,
   34.9665,      6393,
   34.9969,      5675,
   35.0272,      5029,
   35.0575,      4442,
   35.0879,      3965,
   35.1182,      3557,
   35.1485,      3203,
   35.1788,      2955,
   35.2092,      2774,
   35.2395,      2489,
   35.2698,      2404,
   35.3002,      2238,
   35.3305,      2087,
   35.3608,      1996,
   35.3911,      1949,
   35.4215,      1840,
   35.4518,      1754,
   35.4821,      1706,
   35.5125,      1634,
   35.5428,      1584,
   35.5731,      1494,
   35.6034,      1515,
   35.6338,      1555,
   35.6641,      1376,
   35.6944,      1392,
   35.7248,      1353,
   35.7551,      1327,
   35.7854,      1329,
   35.8157,      1415,
   35.8461,      1495,
   35.8764,      1789,
   35.9067,      2172,
    35.937,      2467,
   35.9674,      2300,
   35.9977,      2358,
    36.028,      2085,
   36.0584,      1738,
   36.0887,      1674,
    36.119,      1449,
   36.1493,      1294,
   36.1797,      1269,
     36.21,      1238,
   36.2403,      1214,
   36.2707,      1230,
    36.301,      1271,
   36.3313,      1204,
   36.3616,      1097,
    36.392,      1095,
   36.4223,      1056,
   36.4526,       965,
    36.483,       920,
   36.5133,       896,
   36.5436,       898,
   36.5739,       831,
   36.6043,       864,
   36.6346,       824,
   36.6649,       919,
   36.6953,       896,
   36.7256,       925,
   36.7559,       933,
   36.7862,       854,
   36.8166,       878,
   36.8469,       864,
   36.8772,       890,
   36.9075,       901,
   36.9379,       816,
   36.9682,       825,
   36.9985,       885,
   37.0289,       906,
   37.0592,       900,
   37.0895,       916,
   37.1198,       932,
   37.1502,      1026,
   37.1805,      1010,
   37.2108,       956,
   37.2412,       968,
   37.2715,       957,
   37.3018,      1002,
   37.3321,       969,
   37.3625,       961,
   37.3928,       922,
   37.4231,       979,
   37.4535,       847,
   37.4838,       875,
   37.5141,       903,
   37.5444,       896,
   37.5748,       854,
   37.6051,       953,
   37.6354,       937,
   37.6658,       864,
   37.6961,       865,
   37.7264,       859,
   37.7567,       835,
   37.7871,       773,
   37.8174,       841,
   37.8477,       792,
    37.878,       796,
   37.9084,       851,
   37.9387,       815,
    37.969,       804,
   37.9994,       829,
   38.0297,       844,
     38.06,       800,
   38.0903,       834,
   38.1207,       839,
    38.151,       953,
   38.1813,       920,
   38.2117,       962,
    38.242,       874,
   38.2723,       966,
   38.3026,       873,
    38.333,       875,
   38.3633,       912,
   38.3936,       915,
    38.424,       962,
   38.4543,       949,
   38.4846,       967,
   38.5149,      1139,
   38.5453,      1290,
   38.5756,      1583,
   38.6059,      1802,
   38.6363,      1934,
   38.6666,      1860,
   38.6969,      1837,
   38.7272,      1581,
   38.7576,      1369,
   38.7879,      1204,
   38.8182,      1070,
   38.8485,       986,
   38.8789,       963,
   38.9092,       944,
   38.9395,       981,
   38.9699,       953,
   39.0002,       931,
   39.0305,       922,
   39.0608,       798,
   39.0912,       748,
   39.1215,       773,
   39.1518,       775,
   39.1822,       731,
   39.2125,       777,
   39.2428,       753,
   39.2731,       717,
   39.3035,       741,
   39.3338,       756,
   39.3641,       656,
   39.3945,       673,
   39.4248,       704,
   39.4551,       682,
   39.4854,       693,
   39.5158,       738,
   39.5461,       705,
   39.5764,       687,
   39.6068,       715,
   39.6371,       722,
   39.6674,       712,
   39.6977,       670,
   39.7281,       723,
   39.7584,       725,
   39.7887,       747,
    39.819,       753,
   39.8494,       792,
   39.8797,       738,
     39.91,       725,
   39.9404,       719,
   39.9707,       702,
    40.001,       669,
   40.0313,       695,
   40.0617,       727,
    40.092,       722,
   40.1223,       733,
   40.1527,       716,
    40.183,       750,
   40.2133,       748,
   40.2436,       741,
    40.274,       753,
   40.3043,       817,
   40.3346,       794,
    40.365,       789,
   40.3953,       836,
   40.4256,       778,
   40.4559,       829,
   40.4863,       806,
   40.5166,       804,
   40.5469,       828,
   40.5773,       824,
   40.6076,       817,
   40.6379,       824,
   40.6682,       843,
   40.6986,       794,
   40.7289,       785,
   40.7592,       834,
   40.7895,       862,
   40.8199,       821,
   40.8502,       811,
   40.8805,       756,
   40.9109,       786,
   40.9412,       778,
   40.9715,       810,
   41.0018,       790,
   41.0322,       824,
   41.0625,       836,
   41.0928,       771,
   41.1232,       800,
   41.1535,       795,
   41.1838,       800,
   41.2141,       812,
   41.2445,       739,
   41.2748,       710,
   41.3051,       764,
   41.3355,       709,
   41.3658,       733,
   41.3961,       721,
   41.4264,       743,
   41.4568,       744,
   41.4871,       776,
   41.5174,       772,
   41.5478,       779,
   41.5781,       800,
   41.6084,       799,
   41.6387,       808,
   41.6691,       778,
   41.6994,       796,
   41.7297,       760,
   41.7601,       792,
   41.7904,       850,
   41.8207,       815,
    41.851,       809,
   41.8814,       907,
   41.9117,       893,
    41.942,       998,
   41.9723,      1025,
   42.0027,      1182,
    42.033,      1419,
   42.0633,      1637,
   42.0937,      1717,
    42.124,      1893,
   42.1543,      1933,
   42.1846,      1736,
    42.215,      1735,
   42.2453,      1727,
   42.2756,      1621,
    42.306,      1504,
   42.3363,      1434,
   42.3666,      1407,
   42.3969,      1416,
   42.4273,      1456,
   42.4576,      1509,
   42.4879,      1678,
   42.5183,      1752,
   42.5486,      1876,
   42.5789,      1883,
   42.6092,      1879,
   42.6396,      1920,
   42.6699,      1884,
   42.7002,      1769,
   42.7306,      1600,
   42.7609,      1556,
   42.7912,      1516,
   42.8215,      1374,
   42.8519,      1304,
   42.8822,      1222,
   42.9125,      1124,
   42.9428,      1114,
   42.9732,      1032,
   43.0035,       969,
   43.0338,       975,
   43.0642,       975,
   43.0945,       892,
   43.1248,       881,
   43.1551,       935,
   43.1855,       838,
   43.2158,       891,
   43.2461,       892,
   43.2765,       860,
   43.3068,       898,
   43.3371,       911,
   43.3674,       891,
   43.3978,       925,
   43.4281,       894,
   43.4584,       920,
   43.4888,       951,
   43.5191,      1034,
   43.5494,      1007,
   43.5797,      1065,
   43.6101,       990,
   43.6404,       980,
   43.6707,       912,
   43.7011,       912,
   43.7314,       801,
   43.7617,       838,
    43.792,       812,
   43.8224,       784,
   43.8527,       818,
    43.883,       755,
   43.9133,       833,
   43.9437,       821,
    43.974,       773,
   44.0043,       845,
   44.0347,       848,
    44.065,       897,
   44.0953,       918,
   44.1256,       977,
    44.156,      1100,
   44.1863,      1240,
   44.2166,      1464,
    44.247,      1547,
   44.2773,      1587,
   44.3076,      1506,
   44.3379,      1375,
   44.3683,      1373,
   44.3986,      1178,
   44.4289,      1031,
   44.4593,       940,
   44.4896,       901,
   44.5199,       810,
   44.5502,       807,
   44.5806,       863,
   44.6109,       806,
   44.6412,       830,
   44.6716,       838,
   44.7019,       829,
   44.7322,       890,
   44.7625,       919,
   44.7929,       955,
   44.8232,      1030,
   44.8535,      1118,
   44.8838,      1155,
   44.9142,      1228,
   44.9445,      1187,
   44.9748,      1103,
   45.0052,      1091,
   45.0355,      1111,
   45.0658,      1136,
   45.0961,      1185,
   45.1265,      1159,
   45.1568,      1131,
   45.1871,      1061,
   45.2175,       997,
   45.2478,       890,
   45.2781,       839,
   45.3084,       829,
   45.3388,       854,
   45.3691,       777,
   45.3994,       714,
   45.4298,       740,
   45.4601,       742,
   45.4904,       736,
   45.5207,       746,
   45.5511,       746,
   45.5814,       652,
   45.6117,       713,
   45.6421,       739,
   45.6724,       697,
   45.7027,       693,
    45.733,       711,
   45.7634,       695,
   45.7937,       713,
    45.824,       697,
   45.8543,       715,
   45.8847,       711,
    45.915,       693,
   45.9453,       719,
   45.9757,       732,
    46.006,       787,
   46.0363,       831,
   46.0666,       898,
    46.097,      1103,
   46.1273,      1284,
   46.1576,      1455,
    46.188,      1431,
   46.2183,      1348,
   46.2486,      1263,
   46.2789,      1189,
   46.3093,      1177,
   46.3396,      1107,
   46.3699,      1028,
   46.4003,      1081,
   46.4306,      1102,
   46.4609,      1149,
   46.4912,      1144,
   46.5216,      1311,
   46.5519,      1424,
   46.5822,      1542,
   46.6126,      1739,
   46.6429,      1864,
   46.6732,      1968,
   46.7035,      2084,
   46.7339,      2285,
   46.7642,      2254,
   46.7945,      2106,
   46.8249,      2091,
   46.8552,      2014,
   46.8855,      1890,
   46.9158,      1778,
   46.9462,      1706,
   46.9765,      1711,
   47.0068,      1535,
   47.0371,      1416,
   47.0675,      1332,
   47.0978,      1242,
   47.1281,      1114,
   47.1585,      1132,
   47.1888,      1097,
   47.2191,      1081,
   47.2494,      1015,
   47.2798,       967,
   47.3101,       932,
   47.3404,       933,
   47.3708,       946,
   47.4011,       911,
   47.4314,       926,
   47.4617,       861,
   47.4921,       882,
   47.5224,       847,
   47.5527,       874,
   47.5831,       843,
   47.6134,       872,
   47.6437,       888,
    47.674,       830,
   47.7044,       812,
   47.7347,       803,
    47.765,       814,
   47.7954,       789,
   47.8257,       768,
    47.856,       850,
   47.8863,       736,
   47.9167,       786,
    47.947,       815,
   47.9773,       833,
   48.0076,       857,
    48.038,       833,
   48.0683,       856,
   48.0986,       887,
    48.129,       894,
   48.1593,       961,
   48.1896,       922,
   48.2199,       941,
   48.2503,       845,
   48.2806,       836,
   48.3109,       799,
   48.3413,       808,
   48.3716,       800,
   48.4019,       769,
   48.4322,       721,
   48.4626,       696,
   48.4929,       707,
   48.5232,       669,
   48.5536,       676,
   48.5839,       677,
   48.6142,       643,
   48.6445,       664,
   48.6749,       694,
   48.7052,       650,
   48.7355,       671,
   48.7659,       664,
   48.7962,       635,
   48.8265,       644,
   48.8568,       646,
   48.8872,       623,
   48.9175,       638,
   48.9478,       657,
   48.9781,       654,
   49.0085,       625,
   49.0388,       590,
   49.0691,       643,
   49.0995,       602,
   49.1298,       658,
   49.1601,       648,
   49.1904,       695,
   49.2208,       595,
   49.2511,       608,
   49.2814,       642,
   49.3118,       614,
   49.3421,       583,
   49.3724,       630,
   49.4027,       622,
   49.4331,       587,
   49.4634,       646,
   49.4937,       627,
   49.5241,       639,
   49.5544,       655,
   49.5847,       655,
    49.615,       585,
   49.6454,       610,
   49.6757,       644,
    49.706,       640,
   49.7364,       653,
   49.7667,       593,
    49.797,       654,
   49.8273,       631,
   49.8577,       629,
    49.888,       709,
   49.9183,       671,
   49.9486,       654,
    49.979,       678,
   50.0093,       642,
   50.0396,       658,
     50.07,       736,
   50.1003,       737,
   50.1306,       769,
   50.1609,       857,
   50.1913,       904,
   50.2216,      1017,
   50.2519,      1070,
   50.2823,      1072,
   50.3126,       950,
   50.3429,       881,
   50.3732,       941,
   50.4036,       845,
   50.4339,       804,
   50.4642,       787,
   50.4946,       804,
   50.5249,       830,
   50.5552,       851,
   50.5855,      1084,
   50.6159,      1247,
   50.6462,      1153,
   50.6765,      1211,
   50.7069,      1194,
   50.7372,      1179,
   50.7675,      1118,
   50.7978,      1038,
   50.8282,       979,
   50.8585,      1014,
   50.8888,       951,
   50.9191,       956,
   50.9495,      1034,
   50.9798,      1121,
   51.0101,      1136,
   51.0405,      1232,
   51.0708,      1359,
   51.1011,      1424,
   51.1314,      1518,
   51.1618,      1656,
   51.1921,      1780,
   51.2224,      1814,
   51.2528,      1952,
   51.2831,      1854,
   51.3134,      1817,
   51.3437,      1787,
   51.3741,      1741,
   51.4044,      1694,
   51.4347,      1642,
   51.4651,      1545,
   51.4954,      1436,
   51.5257,      1373,
    51.556,      1212,
   51.5864,      1212,
   51.6167,      1107,
    51.647,      1032,
   51.6774,      1014,
   51.7077,       951,
    51.738,       952,
   51.7683,       912,
   51.7987,       854,
    51.829,       957,
   51.8593,       823,
   51.8897,       839,
     51.92,       812,
   51.9503,       782,
   51.9806,       796,
    52.011,       811,
   52.0413,       804,
   52.0716,       786,
   52.1019,       748,
   52.1323,       762,
   52.1626,       752,
   52.1929,       748,
   52.2233,       711,
   52.2536,       711,
   52.2839,       672,
   52.3142,       700,
   52.3446,       690,
   52.3749,       721,
   52.4052,       733,
   52.4356,       671,
   52.4659,       737,
   52.4962,       683,
   52.5265,       718,
   52.5569,       689,
   52.5872,       759,
   52.6175,       692,
   52.6479,       690,
   52.6782,       716,
   52.7085,       683,
   52.7388,       641,
   52.7692,       656,
   52.7995,       652,
   52.8298,       691,
   52.8602,       632,
   52.8905,       663,
   52.9208,       669,
   52.9511,       654,
   52.9815,       657,
   53.0118,       668,
   53.0421,       640,
   53.0724,       629,
   53.1028,       680,
   53.1331,       656,
   53.1634,       664,
   53.1938,       655,
   53.2241,       656,
   53.2544,       638,
   53.2847,       786,
   53.3151,       653,
   53.3454,       746,
   53.3757,       698,
   53.4061,       705,
   53.4364,       749,
   53.4667,       758,
    53.497,       782,
   53.5274,       841,
   53.5577,       833,
    53.588,       924,
   53.6184,       972,
   53.6487,      1094,
    53.679,      1297,
   53.7093,      1510,
   53.7397,      1795,
     53.77,      1893,
   53.8003,      1732,
   53.8307,      1722,
    53.861,      1526,
   53.8913,      1381,
   53.9216,      1275,
    53.952,      1103,
   53.9823,       940,
   54.0126,       868,
   54.0429,       795,
   54.0733,       741,
   54.1036,       718,
   54.1339,       723,
   54.1643,       735,
   54.1946,       673,
   54.2249,       645,
   54.2552,       678,
   54.2856,       676,
   54.3159,       638,
   54.3462,       647,
   54.3766,       661,
   54.4069,       642,
   54.4372,       650,
   54.4675,       620,
   54.4979,       640,
   54.5282,       563,
   54.5585,       585,
   54.5889,       638,
   54.6192,       647,
   54.6495,       616,
   54.6798,       652,
   54.7102,       605,
   54.7405,       588,
   54.7708,       633,
   54.8012,       569,
   54.8315,       582,
   54.8618,       621,
   54.8921,       623,
   54.9225,       584,
   54.9528,       580,
   54.9831,       626,
   55.0134,       609,
   55.0438,       593,
   55.0741,       598,
   55.1044,       615,
   55.1348,       612,
   55.1651,       629,
   55.1954,       673,
   55.2257,       690,
   55.2561,       702,
   55.2864,       698,
   55.3167,       733,
   55.3471,       798,
   55.3774,       776,
   55.4077,       794,
    55.438,       737,
   55.4684,       760,
   55.4987,       750,
    55.529,       749,
   55.5594,       771,
   55.5897,       813,
     55.62,       781,
   55.6503,       809,
   55.6807,       852,
    55.711,       872,
   55.7413,       955,
   55.7717,      1111,
    55.802,      1229,
   55.8323,      1327,
   55.8626,      1301,
    55.893,      1288,
   55.9233,      1347,
   55.9536,      1405,
   55.9839,      1270,
   56.0143,      1303,
   56.0446,      1282,
   56.0749,      1249,
   56.1053,      1232,
   56.1356,      1280,
   56.1659,      1249,
   56.1962,      1234,
   56.2266,      1312,
   56.2569,      1337,
   56.2872,      1376,
   56.3176,      1400,
   56.3479,      1442,
   56.3782,      1528,
   56.4085,      1616,
   56.4389,      1613,
   56.4692,      1682,
   56.4995,      1770,
   56.5299,      1838,
   56.5602,      1914,
   56.5905,      1924,
   56.6208,      2025,
   56.6512,      2041,
   56.6815,      2104,
   56.7118,      2225,
   56.7422,      2139,
   56.7725,      2205,
   56.8028,      2144,
   56.8331,      2032,
   56.8635,      2075,
   56.8938,      1964,
   56.9241,      2000,
   56.9544,      1944,
   56.9848,      1948,
   57.0151,      1997,
   57.0454,      1946,
   57.0758,      1794,
   57.1061,      1748,
   57.1364,      1670,
   57.1667,      1523,
   57.1971,      1450,
   57.2274,      1340,
   57.2577,      1251,
   57.2881,      1175,
   57.3184,      1178,
   57.3487,      1148,
    57.379,      1103,
   57.4094,      1168,
   57.4397,      1185,
     57.47,      1224,
   57.5004,      1235,
   57.5307,      1341,
    57.561,      1418,
   57.5913,      1354,
   57.6217,      1500,
    57.652,      1629,
   57.6823,      1621,
   57.7127,      1731,
    57.743,      1743,
   57.7733,      1766,
   57.8036,      1823,
    57.834,      1791,
   57.8643,      1807,
   57.8946,      1704,
    57.925,      1763,
   57.9553,      1694,
   57.9856,      1652,
   58.0159,      1474,
   58.0463,      1462,
   58.0766,      1462,
   58.1069,      1335,
   58.1372,      1285,
   58.1676,      1234,
   58.1979,      1192,
   58.2282,      1068,
   58.2586,      1111,
   58.2889,      1069,
   58.3192,       978,
   58.3495,       951,
   58.3799,       991,
   58.4102,       936,
   58.4405,       957,
   58.4709,       904,
   58.5012,       905,
   58.5315,       861,
   58.5618,       915,
   58.5922,       873,
   58.6225,       821,
   58.6528,       798,
   58.6832,       807,
   58.7135,       845,
   58.7438,       806,
   58.7741,       841,
   58.8045,       915,
   58.8348,       922,
   58.8651,       924,
   58.8955,      1092,
   58.9258,      1236,
   58.9561,      1370,
   58.9864,      1414,
   59.0168,      1372,
   59.0471,      1289,
   59.0774,      1282,
   59.1077,      1230,
   59.1381,      1141,
   59.1684,      1078,
   59.1987,       975,
   59.2291,       943,
   59.2594,       870,
   59.2897,       756,
     59.32,       792,
   59.3504,       758,
   59.3807,       773,
    59.411,       723,
   59.4414,       697,
   59.4717,       697,
    59.502,       658,
   59.5323,       655,
   59.5627,       633,
    59.593,       664,
   59.6233,       630,
   59.6537,       641,
    59.684,       691,
   59.7143,       637,
   59.7446,       650,
    59.775,       688,
   59.8053,       630,
   59.8356,       666,
    59.866,       638,
   59.8963,       653,
   59.9266,       626,
   59.9569,       580,
   59.9873,       611,
   60.0176,       579,
   60.0479,       612,
   60.0782,       584,
   60.1086,       575,
   60.1389,       570,
   60.1692,       575,
   60.1996,       542,
   60.2299,       599,
   60.2602,       603,
   60.2905,       595,
   60.3209,       540,
   60.3512,       551,
   60.3815,       565,
   60.4119,       549,
   60.4422,       536,
   60.4725,       541,
   60.5028,       545,
   60.5332,       567,
   60.5635,       583,
   60.5938,       532,
   60.6242,       509,
   60.6545,       514,
   60.6848,       531,
   60.7151,       528,
   60.7455,       573,
   60.7758,       508,
   60.8061,       520,
   60.8365,       529,
   60.8668,       506,
   60.8971,       510,
   60.9274,       516,
   60.9578,       529,
   60.9881,       521,
   61.0184,       542,
   61.0487,       518,
   61.0791,       567,
   61.1094,       554,
   61.1397,       506,
   61.1701,       549,
   61.2004,       573,
   61.2307,       569,
    61.261,       567,
   61.2914,       561,
   61.3217,       579,
    61.352,       591,
   61.3824,       575,
   61.4127,       631,
    61.443,       601,
   61.4733,       607,
   61.5037,       601,
    61.534,       699,
   61.5643,       797,
   61.5947,       822,
    61.625,       965,
   61.6553,      1079,
   61.6856,      1075,
    61.716,      1027,
   61.7463,       996,
   61.7766,       935,
    61.807,       912,
   61.8373,       895,
   61.8676,       802,
   61.8979,       756,
   61.9283,       689,
   61.9586,       645,
   61.9889,       622,
   62.0192,       643,
   62.0496,       581,
   62.0799,       613,
   62.1102,       595,
   62.1406,       623,
   62.1709,       668,
   62.2012,       645,
   62.2315,       757,
   62.2619,       693,
   62.2922,       792,
   62.3225,       811,
   62.3529,       730,
   62.3832,       791,
   62.4135,       746,
   62.4438,       744,
   62.4742,       693,
   62.5045,       697,
   62.5348,       680,
   62.5652,       590,
   62.5955,       644,
   62.6258,       573,
   62.6561,       559,
   62.6865,       513,
   62.7168,       527,
   62.7471,       515,
   62.7775,       551,
   62.8078,       521,
   62.8381,       531,
   62.8684,       526,
   62.8988,       479,
   62.9291,       458,
   62.9594,       504,
   62.9898,       490,
   63.0201,       537,
   63.0504,       489,
   63.0807,       487,
   63.1111,       513,
   63.1414,       484,
   63.1717,       496,
    63.202,       485,
   63.2324,       484,
   63.2627,       521,
    63.293,       510,
   63.3234,       519,
   63.3537,       492,
    63.384,       529,
   63.4143,       531,
   63.4447,       517,
    63.475,       518,
   63.5053,       519,
   63.5357,       517,
    63.566,       504,
   63.5963,       517,
   63.6266,       534,
    63.657,       519,
   63.6873,       528,
   63.7176,       477,
    63.748,       489,
   63.7783,       519,
   63.8086,       508,
   63.8389,       496,
   63.8693,       519,
   63.8996,       522,
   63.9299,       462,
   63.9603,       503,
   63.9906,       492,
   64.0209,       487,
   64.0512,       489,
   64.0816,       476,
   64.1119,       474,
   64.1422,       452,
   64.1725,       502,
   64.2029,       499,
   64.2332,       517,
   64.2635,       505,
   64.2939,       459,
   64.3242,       487,
   64.3545,       462,
   64.3848,       496,
   64.4152,       487,
   64.4455,       486,
   64.4758,       462,
   64.5062,       462,
   64.5365,       456,
   64.5668,       488,
   64.5971,       505,
   64.6275,       469,
   64.6578,       493,
   64.6881,       513,
   64.7185,       525,
   64.7488,       473,
   64.7791,       476,
   64.8094,       524,
   64.8398,       490,
   64.8701,       464,
   64.9004,       476,
   64.9308,       486,
   64.9611,       462,
   64.9914,       493,
   65.0217,       519,
   65.0521,       484,
   65.0824,       496,
   65.1127,       512,
    65.143,       518,
   65.1734,       488,
   65.2037,       526,
    65.234,       464,
   65.2644,       492,
   65.2947,       488,
    65.325,       491,
   65.3553,       459,
   65.3857,       480,
    65.416,       479,
   65.4463,       482,
   65.4767,       455,
    65.507,       484,
   65.5373,       432,
   65.5676,       479,
    65.598,       482,
   65.6283,       452,
   65.6586,       447,
    65.689,       445,
   65.7193,       477,
   65.7496,       471,
   65.7799,       488,
   65.8103,       497,
   65.8406,       489,
   65.8709,       455,
   65.9013,       462,
   65.9316,       476,
   65.9619,       532,
   65.9922,       500,
   66.0226,       457,
   66.0529,       496,
   66.0832,       482,
   66.1135,       492,
   66.1439,       505,
   66.1742,       503,
   66.2045,       527,
   66.2349,       525,
   66.2652,       494,
   66.2955,       521,
   66.3258,       451,
   66.3562,       519,
   66.3865,       528,
   66.4168,       515,
   66.4472,       503,
   66.4775,       489,
   66.5078,       477,
   66.5381,       512,
   66.5685,       496,
   66.5988,       543,
   66.6291,       504,
   66.6595,       520,
   66.6898,       487,
   66.7201,       517,
   66.7504,       534,
   66.7808,       523,
   66.8111,       554,
   66.8414,       567,
   66.8718,       587,
   66.9021,       580,
   66.9324,       580,
   66.9627,       593,
   66.9931,       564,
   67.0234,       554,
   67.0537,       526,
    67.084,       510,
   67.1144,       562,
   67.1447,       527,
    67.175,       533,
   67.2054,       515,
   67.2357,       513,
    67.266,       509,
   67.2963,       536,
   67.3267,       507,
    67.357,       528,
   67.3873,       541,
   67.4177,       505,
    67.448,       560,
   67.4783,       578,
   67.5086,       570,
    67.539,       572,
   67.5693,       624,
   67.5996,       625,
     67.63,       662,
   67.6603,       659,
   67.6906,       652,
   67.7209,       653,
   67.7513,       705,
   67.7816,       780,
   67.8119,       796,
   67.8423,       846,
   67.8726,       853,
   67.9029,       854,
   67.9332,       769,
   67.9636,       844,
   67.9939,       741,
   68.0242,       736,
   68.0546,       699,
   68.0849,       686,
   68.1152,       657,
   68.1455,       637,
   68.1759,       586,
   68.2062,       657,
   68.2365,       597,
   68.2668,       634,
   68.2972,       688,
   68.3275,       644,
   68.3578,       637,
   68.3882,       617,
   68.4185,       645,
   68.4488,       646,
   68.4791,       742,
   68.5095,       715,
   68.5398,       774,
   68.5701,       765,
   68.6005,       824,
   68.6308,       878,
   68.6611,       896,
   68.6914,       850,
   68.7218,       892,
   68.7521,       872,
   68.7824,       852,
   68.8128,       917,
   68.8431,       876,
   68.8734,       910,
   68.9037,       880,
   68.9341,       834,
   68.9644,       832,
   68.9947,       771,
   69.0251,       787,
   69.0554,       782,
   69.0857,       759,
    69.116,       701,
   69.1464,       655,
   69.1767,       673,
    69.207,       649,
   69.2373,       674,
   69.2677,       648,
    69.298,       621,
   69.3283,       653,
   69.3587,       591,
    69.389,       591,
   69.4193,       608,
   69.4496,       622,
     69.48,       573,
   69.5103,       581,
   69.5406,       564,
    69.571,       574,
   69.6013,       590,
   69.6316,       606,
   69.6619,       547,
   69.6923,       570,
   69.7226,       590,
   69.7529,       551,
   69.7833,       537,
   69.8136,       521,
   69.8439,       533,
   69.8742,       575,
   69.9046,       572,
   69.9349,       534,
   69.9652,       599,
   69.9956,       603,
