;RAW4.00
[RawHeader]
Date=04/29/2019
EstimatedTotalTime=2335.39
FurtherDQLReading=0
HardwareIndicator=65519
MeasuredTotalTime=2335.39
MeasurementFlag=1
NumberOfMeasuredRanges=1
NumberOfRanges=1
Time=19:19:15

[VarInfo]
Type=USER
Flags=0
Value=Bruker Service

[VarInfo]
Type=SAMPLEID
Flags=0
Value=Commander Sample ID

[VarInfo]
Type=COMMENT
Flags=0
Value=

[VarInfo]
Type=UTF
Flags=0
Value=

[VarInfo]
Type=CREATOR
Flags=0
Value=BrmlToV4Converter

[VarInfo]
Type=CREATOR_VERSION
Flags=0
Value=7.3.0.0

[HardwareConfiguration]
AbsorptionFactor=9999
ActivateAbsorber=0
Alpha1=1.78897
Alpha2=1.79285
AlphaAverage=1.79026
AlphaRatio=0.5
Analyzer=0
Anode=Co
AntiScatteringSlit=9999
BeamOpticsFlags=0
Beta=1.62079
BetaRelativeIntensity=0
DeactivateAbsorber=0
DetectorSlit=9999
DivergenceSlit=1
GoniometerControl=0
GoniometerDiameter=282
GoniometerModel=256
GoniometerStage=7
Monochromator=0
NearSampleSlit=9999
PrimarySollerSlit=9999
SampleChanger=0
SecondSollerSlit=9999
SynchronousAxis=0
ThinFilmAttachment=9999
WaveUnit=A

[RangeHeader]
ActuallyUsedLambda=1.79026
AdditionalDetectorMask=257
DataRecordLength=4
DelayTime=0
DisplayPlaneNumber=0
EstimatedScanTime=2335
ExtraParametersMask=0
GeneratorCurrent=10
GeneratorVoltage=30
Increment=0.0303281
Increment3=0
NumberOfCompletedData=2144
NumberOfCounts=1
NumberOfDetectors=0
NumberOfDrives=2
NumberOfEncoderDrives=0
NumberOfMeasuredData=2144
NumberOfVaryingParameters=0
RangeStartTime=0
RotationSpeed=1
ScanMode=1
ScanType=Locked Coupled
SimulatedMeasConditions=0
SlitChangerIn=0
SmootingWidth=0
Start=5.00234
Steps=2144
SynchronousRotation=0
Time=192

[VarInfo]
Type=PSD_DISCRIM
Flags=0
Value=0.11;0.25

[PSD]
ActualTwoTheta=9999
FirstUsedChannel=0
FixedPSD=0
PSDOpening=5.823
PSDType=5

[Drive]
DriveFlags=1
DriveName=2Theta
DriveNumber=2
DriveOffset=0
OffsetIndex=0
OscillationAmplitude=0
OscillationSpeed=0
StartPosition=5.00234

[Drive]
DriveFlags=1
DriveName=Theta
DriveNumber=1
DriveOffset=0
OffsetIndex=0
OscillationAmplitude=0
OscillationSpeed=0
StartPosition=2.50117

[Data]
     Angle,       PSD,
   5.00234,     16931,
   5.03267,     16363,
     5.063,     15280,
   5.09333,     14353,
   5.12365,     13398,
   5.15398,     12374,
   5.18431,     11381,
   5.21464,     10759,
   5.24497,     10268,
   5.27529,      9794,
   5.30562,      9377,
   5.33595,      9307,
   5.36628,      8950,
   5.39661,      8916,
   5.42694,      8901,
   5.45726,      8659,
   5.48759,      8661,
   5.51792,      8793,
   5.54825,      8312,
   5.57858,      8167,
    5.6089,      8161,
   5.63923,      7909,
   5.66956,      7666,
   5.69989,      7862,
   5.73022,      7747,
   5.76055,      7461,
   5.79087,      7508,
    5.8212,      7372,
   5.85153,      7317,
   5.88186,      7061,
   5.91219,      7102,
   5.94251,      7022,
   5.97284,      6774,
   6.00317,      6819,
    6.0335,      6751,
   6.06383,      6587,
   6.09415,      6554,
   6.12448,      6617,
   6.15481,      6273,
   6.18514,      6165,
   6.21547,      6050,
    6.2458,      5760,
   6.27612,      5647,
   6.30645,      5536,
   6.33678,      5362,
   6.36711,      5239,
   6.39744,      5287,
   6.42776,      5263,
   6.45809,      4989,
   6.48842,      4881,
   6.51875,      4780,
   6.54908,      4979,
    6.5794,      4856,
   6.60973,      4690,
   6.64006,      4772,
   6.67039,      4461,
   6.70072,      4588,
   6.73105,      4335,
   6.76137,      4300,
    6.7917,      4527,
   6.82203,      4284,
   6.85236,      4279,
   6.88269,      4339,
   6.91301,      4165,
   6.94334,      4139,
   6.97367,      4085,
     7.004,      4209,
   7.03433,      4071,
   7.06466,      3944,
   7.09498,      4087,
   7.12531,      3846,
   7.15564,      3794,
   7.18597,      3904,
    7.2163,      3867,
   7.24662,      3703,
   7.27695,      3714,
   7.30728,      3605,
   7.33761,      3626,
   7.36794,      3581,
   7.39826,      3533,
   7.42859,      3438,
   7.45892,      3393,
   7.48925,      3286,
   7.51958,      3218,
   7.54991,      3376,
   7.58023,      3278,
   7.61056,      3229,
   7.64089,      3219,
   7.67122,      3227,
   7.70155,      3134,
   7.73187,      3230,
    7.7622,      3086,
   7.79253,      2978,
   7.82286,      2975,
   7.85319,      2917,
   7.88352,      2973,
   7.91384,      2952,
   7.94417,      2923,
    7.9745,      2816,
   8.00483,      2874,
   8.03516,      2753,
   8.06548,      2820,
   8.09581,      2878,
   8.12614,      2762,
   8.15647,      2785,
    8.1868,      2702,
   8.21712,      2690,
   8.24745,      2572,
   8.27778,      2683,
   8.30811,      2610,
   8.33844,      2533,
   8.36877,      2704,
   8.39909,      2544,
   8.42942,      2525,
   8.45975,      2508,
   8.49008,      2511,
   8.52041,      2449,
   8.55073,      2400,
   8.58106,      2498,
   8.61139,      2405,
   8.64172,      2340,
   8.67205,      2258,
   8.70237,      2255,
    8.7327,      2376,
   8.76303,      2293,
   8.79336,      2259,
   8.82369,      2371,
   8.85402,      2184,
   8.88434,      2202,
   8.91467,      2196,
     8.945,      2129,
   8.97533,      2123,
   9.00566,      2167,
   9.03598,      2157,
   9.06631,      2164,
   9.09664,      2114,
   9.12697,      2122,
    9.1573,      2097,
   9.18763,      2072,
   9.21795,      2043,
   9.24828,      2121,
   9.27861,      2037,
   9.30894,      2038,
   9.33927,      1979,
   9.36959,      2049,
   9.39992,      1946,
   9.43025,      1884,
   9.46058,      2016,
   9.49091,      1983,
   9.52123,      1969,
   9.55156,      1850,
   9.58189,      1926,
   9.61222,      1844,
   9.64255,      1893,
   9.67288,      1931,
    9.7032,      1974,
   9.73353,      1915,
   9.76386,      1841,
   9.79419,      1893,
   9.82452,      1852,
   9.85484,      1776,
   9.88517,      1745,
    9.9155,      1895,
   9.94583,      1814,
   9.97616,      1861,
   10.0065,      1874,
   10.0368,      1812,
   10.0671,      1699,
   10.0975,      1792,
   10.1278,      1759,
   10.1581,      1780,
   10.1885,      1746,
   10.2188,      1804,
   10.2491,      1758,
   10.2794,      1779,
   10.3098,      1742,
   10.3401,      1785,
   10.3704,      1705,
   10.4008,      1719,
   10.4311,      1662,
   10.4614,      1759,
   10.4917,      1688,
   10.5221,      1743,
   10.5524,      1765,
   10.5827,      1715,
    10.613,      1620,
   10.6434,      1676,
   10.6737,      1585,
    10.704,      1679,
   10.7344,      1623,
   10.7647,      1656,
    10.795,      1628,
   10.8253,      1673,
   10.8557,      1605,
    10.886,      1699,
   10.9163,      1640,
   10.9467,      1650,
    10.977,      1668,
   11.0073,      1585,
   11.0376,      1621,
    11.068,      1688,
   11.0983,      1658,
   11.1286,      1602,
    11.159,      1625,
   11.1893,      1563,
   11.2196,      1558,
   11.2499,      1625,
   11.2803,      1555,
   11.3106,      1584,
   11.3409,      1565,
   11.3713,      1583,
   11.4016,      1603,
   11.4319,      1677,
   11.4622,      1609,
   11.4926,      1543,
   11.5229,      1527,
   11.5532,      1620,
   11.5835,      1640,
   11.6139,      1649,
   11.6442,      1582,
   11.6745,      1573,
   11.7049,      1615,
   11.7352,      1633,
   11.7655,      1471,
   11.7958,      1532,
   11.8262,      1575,
   11.8565,      1581,
   11.8868,      1569,
   11.9172,      1596,
   11.9475,      1547,
   11.9778,      1561,
   12.0081,      1579,
   12.0385,      1534,
   12.0688,      1550,
   12.0991,      1490,
   12.1295,      1547,
   12.1598,      1466,
   12.1901,      1486,
   12.2204,      1468,
   12.2508,      1540,
   12.2811,      1482,
   12.3114,      1512,
   12.3418,      1572,
   12.3721,      1539,
   12.4024,      1501,
   12.4327,      1511,
   12.4631,      1523,
   12.4934,      1464,
   12.5237,      1508,
    12.554,      1406,
   12.5844,      1477,
   12.6147,      1541,
    12.645,      1535,
   12.6754,      1458,
   12.7057,      1509,
    12.736,      1485,
   12.7663,      1537,
   12.7967,      1488,
    12.827,      1422,
   12.8573,      1504,
   12.8877,      1493,
    12.918,      1509,
   12.9483,      1402,
   12.9786,      1486,
    13.009,      1401,
   13.0393,      1505,
   13.0696,      1524,
      13.1,      1409,
   13.1303,      1441,
   13.1606,      1424,
   13.1909,      1502,
   13.2213,      1510,
   13.2516,      1457,
   13.2819,      1435,
   13.3123,      1410,
   13.3426,      1392,
   13.3729,      1402,
   13.4032,      1376,
   13.4336,      1454,
   13.4639,      1410,
   13.4942,      1484,
   13.5245,      1503,
   13.5549,      1408,
   13.5852,      1476,
   13.6155,      1458,
   13.6459,      1494,
   13.6762,      1486,
   13.7065,      1367,
   13.7368,      1477,
   13.7672,      1475,
   13.7975,      1501,
   13.8278,      1446,
   13.8582,      1404,
   13.8885,      1444,
   13.9188,      1459,
   13.9491,      1399,
   13.9795,      1414,
   14.0098,      1410,
   14.0401,      1486,
   14.0705,      1419,
   14.1008,      1366,
   14.1311,      1448,
   14.1614,      1411,
   14.1918,      1410,
   14.2221,      1463,
   14.2524,      1358,
   14.2828,      1505,
   14.3131,      1385,
   14.3434,      1412,
   14.3737,      1379,
   14.4041,      1394,
   14.4344,      1425,
   14.4647,      1403,
   14.4951,      1402,
   14.5254,      1426,
   14.5557,      1388,
    14.586,      1465,
   14.6164,      1418,
   14.6467,      1427,
    14.677,      1434,
   14.7073,      1435,
   14.7377,      1299,
    14.768,      1384,
   14.7983,      1368,
   14.8287,      1364,
    14.859,      1367,
   14.8893,      1356,
   14.9196,      1391,
     14.95,      1379,
   14.9803,      1452,
   15.0106,      1415,
    15.041,      1374,
   15.0713,      1367,
   15.1016,      1331,
   15.1319,      1366,
   15.1623,      1357,
   15.1926,      1378,
   15.2229,      1399,
   15.2533,      1388,
   15.2836,      1331,
   15.3139,      1310,
   15.3442,      1320,
   15.3746,      1398,
   15.4049,      1457,
   15.4352,      1374,
   15.4656,      1272,
   15.4959,      1318,
   15.5262,      1350,
   15.5565,      1322,
   15.5869,      1328,
   15.6172,      1297,
   15.6475,      1312,
   15.6778,      1329,
   15.7082,      1329,
   15.7385,      1279,
   15.7688,      1302,
   15.7992,      1348,
   15.8295,      1297,
   15.8598,      1292,
   15.8901,      1251,
   15.9205,      1329,
   15.9508,      1360,
   15.9811,      1302,
   16.0115,      1351,
   16.0418,      1328,
   16.0721,      1277,
   16.1024,      1249,
   16.1328,      1315,
   16.1631,      1324,
   16.1934,      1292,
   16.2238,      1334,
   16.2541,      1304,
   16.2844,      1207,
   16.3147,      1287,
   16.3451,      1324,
   16.3754,      1259,
   16.4057,      1298,
   16.4361,      1355,
   16.4664,      1236,
   16.4967,      1290,
    16.527,      1247,
   16.5574,      1338,
   16.5877,      1317,
    16.618,      1285,
   16.6483,      1335,
   16.6787,      1295,
    16.709,      1382,
   16.7393,      1378,
   16.7697,      1283,
      16.8,      1357,
   16.8303,      1308,
   16.8606,      1290,
    16.891,      1247,
   16.9213,      1248,
   16.9516,      1309,
    16.982,      1299,
   17.0123,      1328,
   17.0426,      1301,
   17.0729,      1316,
   17.1033,      1382,
   17.1336,      1309,
   17.1639,      1264,
   17.1943,      1312,
   17.2246,      1263,
   17.2549,      1284,
   17.2852,      1314,
   17.3156,      1276,
   17.3459,      1229,
   17.3762,      1295,
   17.4066,      1295,
   17.4369,      1265,
   17.4672,      1286,
   17.4975,      1256,
   17.5279,      1197,
   17.5582,      1250,
   17.5885,      1189,
   17.6188,      1275,
   17.6492,      1293,
   17.6795,      1291,
   17.7098,      1216,
   17.7402,      1224,
   17.7705,      1210,
   17.8008,      1196,
   17.8311,      1252,
   17.8615,      1226,
   17.8918,      1224,
   17.9221,      1219,
   17.9525,      1221,
   17.9828,      1199,
   18.0131,      1190,
   18.0434,      1147,
   18.0738,      1164,
   18.1041,      1249,
   18.1344,      1236,
   18.1648,      1233,
   18.1951,      1225,
   18.2254,      1161,
   18.2557,      1212,
   18.2861,      1174,
   18.3164,      1182,
   18.3467,      1239,
   18.3771,      1152,
   18.4074,      1181,
   18.4377,      1180,
    18.468,      1171,
   18.4984,      1195,
   18.5287,      1239,
    18.559,      1211,
   18.5893,      1195,
   18.6197,      1138,
     18.65,      1202,
   18.6803,      1199,
   18.7107,      1153,
    18.741,      1193,
   18.7713,      1257,
   18.8016,      1263,
    18.832,      1204,
   18.8623,      1129,
   18.8926,      1231,
    18.923,      1238,
   18.9533,      1170,
   18.9836,      1213,
   19.0139,      1217,
   19.0443,      1223,
   19.0746,      1152,
   19.1049,      1216,
   19.1353,      1215,
   19.1656,      1179,
   19.1959,      1198,
   19.2262,      1169,
   19.2566,      1256,
   19.2869,      1169,
   19.3172,      1139,
   19.3476,      1221,
   19.3779,      1163,
   19.4082,      1138,
   19.4385,      1112,
   19.4689,      1218,
   19.4992,      1215,
   19.5295,      1247,
   19.5599,      1233,
   19.5902,      1143,
   19.6205,      1197,
   19.6508,      1200,
   19.6812,      1212,
   19.7115,      1188,
   19.7418,      1178,
   19.7721,      1191,
   19.8025,      1203,
   19.8328,      1182,
   19.8631,      1188,
   19.8935,      1226,
   19.9238,      1149,
   19.9541,      1126,
   19.9844,      1193,
   20.0148,      1222,
   20.0451,      1241,
   20.0754,      1274,
   20.1058,      1169,
   20.1361,      1138,
   20.1664,      1176,
   20.1967,      1218,
   20.2271,      1251,
   20.2574,      1181,
   20.2877,      1143,
   20.3181,      1264,
   20.3484,      1191,
   20.3787,      1246,
    20.409,      1232,
   20.4394,      1230,
   20.4697,      1229,
      20.5,      1219,
   20.5304,      1194,
   20.5607,      1146,
    20.591,      1213,
   20.6213,      1221,
   20.6517,      1125,
    20.682,      1232,
   20.7123,      1238,
   20.7426,      1220,
    20.773,      1203,
   20.8033,      1159,
   20.8336,      1202,
    20.864,      1182,
   20.8943,      1249,
   20.9246,      1181,
   20.9549,      1240,
   20.9853,      1143,
   21.0156,      1168,
   21.0459,      1213,
   21.0763,      1245,
   21.1066,      1180,
   21.1369,      1180,
   21.1672,      1199,
   21.1976,      1203,
   21.2279,      1164,
   21.2582,      1099,
   21.2886,      1242,
   21.3189,      1146,
   21.3492,      1242,
   21.3795,      1198,
   21.4099,      1294,
   21.4402,      1226,
   21.4705,      1161,
   21.5009,      1206,
   21.5312,      1172,
   21.5615,      1190,
   21.5918,      1159,
   21.6222,      1164,
   21.6525,      1240,
   21.6828,      1187,
   21.7131,      1218,
   21.7435,      1145,
   21.7738,      1163,
   21.8041,      1152,
   21.8345,      1215,
   21.8648,      1172,
   21.8951,      1171,
   21.9254,      1171,
   21.9558,      1145,
   21.9861,      1155,
   22.0164,      1219,
   22.0468,      1127,
   22.0771,      1162,
   22.1074,      1272,
   22.1377,      1220,
   22.1681,      1221,
   22.1984,      1273,
   22.2287,      1273,
   22.2591,      1204,
   22.2894,      1195,
   22.3197,      1230,
     22.35,      1188,
   22.3804,      1183,
   22.4107,      1186,
    22.441,      1216,
   22.4714,      1166,
   22.5017,      1146,
    22.532,      1209,
   22.5623,      1156,
   22.5927,      1182,
    22.623,      1099,
   22.6533,      1211,
   22.6836,      1204,
    22.714,      1149,
   22.7443,      1219,
   22.7746,      1195,
    22.805,      1187,
   22.8353,      1181,
   22.8656,      1156,
   22.8959,      1259,
   22.9263,      1253,
   22.9566,      1208,
   22.9869,      1223,
   23.0173,      1161,
   23.0476,      1199,
   23.0779,      1227,
   23.1082,      1235,
   23.1386,      1230,
   23.1689,      1238,
   23.1992,      1238,
   23.2296,      1275,
   23.2599,      1249,
   23.2902,      1213,
   23.3205,      1206,
   23.3509,      1258,
   23.3812,      1236,
   23.4115,      1210,
   23.4419,      1252,
   23.4722,      1244,
   23.5025,      1236,
   23.5328,      1273,
   23.5632,      1214,
   23.5935,      1152,
   23.6238,      1193,
   23.6541,      1250,
   23.6845,      1156,
   23.7148,      1154,
   23.7451,      1140,
   23.7755,      1244,
   23.8058,      1222,
   23.8361,      1120,
   23.8664,      1160,
   23.8968,      1230,
   23.9271,      1198,
   23.9574,      1164,
   23.9878,      1192,
   24.0181,      1206,
   24.0484,      1180,
   24.0787,      1117,
   24.1091,      1140,
   24.1394,      1177,
   24.1697,      1222,
   24.2001,      1162,
   24.2304,      1154,
   24.2607,      1169,
    24.291,      1154,
   24.3214,      1163,
   24.3517,      1153,
    24.382,      1206,
   24.4124,      1193,
   24.4427,      1163,
    24.473,      1217,
   24.5033,      1183,
   24.5337,      1187,
    24.564,      1265,
   24.5943,      1248,
   24.6246,      1260,
    24.655,      1237,
   24.6853,      1290,
   24.7156,      1187,
    24.746,      1178,
   24.7763,      1142,
   24.8066,      1228,
   24.8369,      1142,
   24.8673,      1133,
   24.8976,      1120,
   24.9279,      1164,
   24.9583,      1088,
   24.9886,      1134,
   25.0189,      1132,
   25.0492,      1168,
   25.0796,      1179,
   25.1099,      1090,
   25.1402,      1094,
   25.1706,      1069,
   25.2009,      1094,
   25.2312,      1047,
   25.2615,      1086,
   25.2919,      1091,
   25.3222,      1114,
   25.3525,      1146,
   25.3829,      1100,
   25.4132,      1087,
   25.4435,      1134,
   25.4738,      1115,
   25.5042,      1107,
   25.5345,      1070,
   25.5648,      1082,
   25.5952,      1091,
   25.6255,      1059,
   25.6558,      1089,
   25.6861,      1031,
   25.7165,      1093,
   25.7468,      1092,
   25.7771,      1081,
   25.8074,      1047,
   25.8378,      1084,
   25.8681,      1091,
   25.8984,      1082,
   25.9288,      1079,
   25.9591,      1142,
   25.9894,      1066,
   26.0197,      1158,
   26.0501,      1118,
   26.0804,      1105,
   26.1107,      1079,
   26.1411,      1119,
   26.1714,      1101,
   26.2017,      1090,
    26.232,      1087,
   26.2624,      1081,
   26.2927,      1088,
    26.323,      1143,
   26.3534,      1067,
   26.3837,      1078,
    26.414,      1083,
   26.4443,      1127,
   26.4747,      1071,
    26.505,      1079,
   26.5353,      1031,
   26.5657,      1020,
    26.596,      1033,
   26.6263,      1123,
   26.6566,      1083,
    26.687,      1064,
   26.7173,      1043,
   26.7476,      1121,
   26.7779,      1118,
   26.8083,      1069,
   26.8386,      1044,
   26.8689,      1072,
   26.8993,      1107,
   26.9296,      1113,
   26.9599,      1160,
   26.9902,      1153,
   27.0206,      1061,
   27.0509,      1132,
   27.0812,      1199,
   27.1116,      1228,
   27.1419,      1199,
   27.1722,      1221,
   27.2025,      1341,
   27.2329,      1354,
   27.2632,      1420,
   27.2935,      1463,
   27.3239,      1488,
   27.3542,      1393,
   27.3845,      1388,
   27.4148,      1273,
   27.4452,      1225,
   27.4755,      1235,
   27.5058,      1183,
   27.5362,      1140,
   27.5665,      1134,
   27.5968,      1227,
   27.6271,      1152,
   27.6575,      1242,
   27.6878,      1227,
   27.7181,      1226,
   27.7484,      1182,
   27.7788,      1115,
   27.8091,      1137,
   27.8394,      1043,
   27.8698,      1130,
   27.9001,      1095,
   27.9304,      1102,
   27.9607,      1068,
   27.9911,      1015,
   28.0214,      1112,
   28.0517,      1016,
   28.0821,      1059,
   28.1124,      1025,
   28.1427,      1074,
    28.173,      1066,
   28.2034,      1029,
   28.2337,      1022,
    28.264,      1058,
   28.2944,      1030,
   28.3247,      1034,
    28.355,      1017,
   28.3853,      1038,
   28.4157,      1074,
    28.446,      1057,
   28.4763,      1053,
   28.5067,      1036,
    28.537,      1061,
   28.5673,      1040,
   28.5976,      1032,
    28.628,      1067,
   28.6583,      1047,
   28.6886,      1068,
   28.7189,      1058,
   28.7493,      1040,
   28.7796,      1060,
   28.8099,      1059,
   28.8403,      1019,
   28.8706,      1040,
   28.9009,      1064,
   28.9312,      1063,
   28.9616,      1003,
   28.9919,       991,
   29.0222,      1079,
   29.0526,      1014,
   29.0829,      1067,
   29.1132,      1027,
   29.1435,      1046,
   29.1739,      1080,
   29.2042,       980,
   29.2345,      1035,
   29.2649,       979,
   29.2952,       992,
   29.3255,       940,
   29.3558,       996,
   29.3862,      1057,
   29.4165,      1066,
   29.4468,       995,
   29.4772,      1037,
   29.5075,      1025,
   29.5378,      1006,
   29.5681,      1031,
   29.5985,       995,
   29.6288,      1034,
   29.6591,      1080,
   29.6894,      1055,
   29.7198,      1126,
   29.7501,      1059,
   29.7804,      1076,
   29.8108,      1067,
   29.8411,      1077,
   29.8714,      1179,
   29.9017,      1212,
   29.9321,      1118,
   29.9624,      1106,
   29.9927,      1099,
   30.0231,      1101,
   30.0534,      1225,
   30.0837,      1257,
    30.114,      1284,
   30.1444,      1318,
   30.1747,      1283,
    30.205,      1395,
   30.2354,      1437,
   30.2657,      1441,
    30.296,      1668,
   30.3263,      1643,
   30.3567,      1856,
    30.387,      2060,
   30.4173,      2367,
   30.4477,      2762,
    30.478,      3288,
   30.5083,      4236,
   30.5386,      5233,
    30.569,      6527,
   30.5993,      7265,
   30.6296,      7180,
     30.66,      6613,
   30.6903,      5647,
   30.7206,      4599,
   30.7509,      3741,
   30.7813,      3005,
   30.8116,      2627,
   30.8419,      2266,
   30.8722,      1967,
   30.9026,      1863,
   30.9329,      1753,
   30.9632,      1683,
   30.9936,      1694,
   31.0239,      1510,
   31.0542,      1517,
   31.0845,      1573,
   31.1149,      1639,
   31.1452,      1598,
   31.1755,      1518,
   31.2059,      1462,
   31.2362,      1478,
   31.2665,      1393,
   31.2968,      1386,
   31.3272,      1465,
   31.3575,      1455,
   31.3878,      1442,
   31.4182,      1617,
   31.4485,      1600,
   31.4788,      1669,
   31.5091,      1773,
   31.5395,      1821,
   31.5698,      1907,
   31.6001,      2264,
   31.6305,      2389,
   31.6608,      2546,
   31.6911,      2984,
   31.7214,      3393,
   31.7518,      3737,
   31.7821,      3935,
   31.8124,      3550,
   31.8427,      3275,
   31.8731,      3001,
   31.9034,      2612,
   31.9337,      2329,
   31.9641,      2078,
   31.9944,      1897,
   32.0247,      1697,
    32.055,      1560,
   32.0854,      1458,
   32.1157,      1328,
    32.146,      1337,
   32.1764,      1183,
   32.2067,      1253,
    32.237,      1194,
   32.2673,      1119,
   32.2977,      1080,
    32.328,      1128,
   32.3583,      1055,
   32.3887,      1010,
    32.419,      1131,
   32.4493,      1019,
   32.4796,      1023,
     32.51,      1028,
   32.5403,       941,
   32.5706,      1014,
    32.601,       990,
   32.6313,      1026,
   32.6616,       981,
   32.6919,      1000,
   32.7223,      1001,
   32.7526,       952,
   32.7829,      1001,
   32.8132,       968,
   32.8436,       944,
   32.8739,       967,
   32.9042,       913,
   32.9346,       961,
   32.9649,       839,
   32.9952,       930,
   33.0255,       930,
   33.0559,       903,
   33.0862,       930,
   33.1165,       903,
   33.1469,       936,
   33.1772,       927,
   33.2075,       901,
   33.2378,       940,
   33.2682,       957,
   33.2985,       892,
   33.3288,       883,
   33.3592,       867,
   33.3895,       937,
   33.4198,       916,
   33.4501,       939,
   33.4805,       945,
   33.5108,       904,
   33.5411,       953,
   33.5715,       870,
   33.6018,       891,
   33.6321,       895,
   33.6624,       912,
   33.6928,       903,
   33.7231,       882,
   33.7534,       908,
   33.7837,       887,
   33.8141,       955,
   33.8444,       913,
   33.8747,       954,
   33.9051,       942,
   33.9354,       931,
   33.9657,       911,
    33.996,       896,
   34.0264,       913,
   34.0567,       958,
    34.087,       947,
   34.1174,      1017,
   34.1477,       964,
    34.178,       904,
   34.2083,       958,
   34.2387,      1037,
    34.269,      1083,
   34.2993,      1082,
   34.3297,      1168,
     34.36,      1336,
   34.3903,      1449,
   34.4206,      1487,
    34.451,      1512,
   34.4813,      1593,
   34.5116,      1605,
    34.542,      1675,
   34.5723,      1884,
   34.6026,      2067,
   34.6329,      2360,
   34.6633,      2693,
   34.6936,      3101,
   34.7239,      3660,
   34.7542,      4223,
   34.7846,      4456,
   34.8149,      4825,
   34.8452,      4933,
   34.8756,      4760,
   34.9059,      4550,
   34.9362,      4206,
   34.9665,      3910,
   34.9969,      3566,
   35.0272,      3038,
   35.0575,      2772,
   35.0879,      2360,
   35.1182,      2239,
   35.1485,      2025,
   35.1788,      1814,
   35.2092,      1688,
   35.2395,      1497,
   35.2698,      1526,
   35.3002,      1470,
   35.3305,      1354,
   35.3608,      1354,
   35.3911,      1276,
   35.4215,      1253,
   35.4518,      1235,
   35.4821,      1209,
   35.5125,      1208,
   35.5428,      1183,
   35.5731,      1201,
   35.6034,      1218,
   35.6338,      1160,
   35.6641,      1088,
   35.6944,      1092,
   35.7248,      1089,
   35.7551,      1079,
   35.7854,      1012,
   35.8157,      1010,
   35.8461,       964,
   35.8764,      1031,
   35.9067,      1009,
    35.937,      1019,
   35.9674,      1048,
   35.9977,      1051,
    36.028,      1008,
   36.0584,      1096,
   36.0887,      1073,
    36.119,      1054,
   36.1493,      1058,
   36.1797,      1004,
     36.21,      1040,
   36.2403,      1022,
   36.2707,      1087,
    36.301,      1140,
   36.3313,      1207,
   36.3616,      1193,
    36.392,      1191,
   36.4223,      1073,
   36.4526,      1059,
    36.483,       968,
   36.5133,       918,
   36.5436,       914,
   36.5739,       916,
   36.6043,       832,
   36.6346,       859,
   36.6649,       887,
   36.6953,       860,
   36.7256,       946,
   36.7559,       857,
   36.7862,       960,
   36.8166,       890,
   36.8469,       956,
   36.8772,       920,
   36.9075,       967,
   36.9379,      1066,
   36.9682,      1198,
   36.9985,      1349,
   37.0289,      1644,
   37.0592,      1837,
   37.0895,      1923,
   37.1198,      1703,
   37.1502,      1620,
   37.1805,      1459,
   37.2108,      1268,
   37.2412,      1105,
   37.2715,      1019,
   37.3018,       997,
   37.3321,       996,
   37.3625,       964,
   37.3928,       964,
   37.4231,       992,
   37.4535,       945,
   37.4838,       817,
   37.5141,       928,
   37.5444,       909,
   37.5748,       885,
   37.6051,       919,
   37.6354,       911,
   37.6658,       939,
   37.6961,       917,
   37.7264,       896,
   37.7567,       893,
   37.7871,       968,
   37.8174,       882,
   37.8477,       922,
    37.878,       913,
   37.9084,       952,
   37.9387,       959,
    37.969,       963,
   37.9994,      1026,
   38.0297,      1025,
     38.06,      1109,
   38.0903,      1069,
   38.1207,      1142,
    38.151,      1176,
   38.1813,      1254,
   38.2117,      1354,
    38.242,      1355,
   38.2723,      1437,
   38.3026,      1414,
    38.333,      1479,
   38.3633,      1507,
   38.3936,      1449,
    38.424,      1463,
   38.4543,      1562,
   38.4846,      1605,
   38.5149,      1836,
   38.5453,      1985,
   38.5756,      2278,
   38.6059,      2707,
   38.6363,      3196,
   38.6666,      3589,
   38.6969,      3959,
   38.7272,      4039,
   38.7576,      3778,
   38.7879,      3327,
   38.8182,      2917,
   38.8485,      2503,
   38.8789,      1989,
   38.9092,      1825,
   38.9395,      1498,
   38.9699,      1452,
   39.0002,      1259,
   39.0305,      1192,
   39.0608,      1141,
   39.0912,      1072,
   39.1215,      1065,
   39.1518,      1025,
   39.1822,       989,
   39.2125,       958,
   39.2428,       953,
   39.2731,       868,
   39.3035,       953,
   39.3338,       929,
   39.3641,       814,
   39.3945,       855,
   39.4248,       805,
   39.4551,       878,
   39.4854,       841,
   39.5158,       836,
   39.5461,       815,
   39.5764,       821,
   39.6068,       797,
   39.6371,       857,
   39.6674,       801,
   39.6977,       820,
   39.7281,       793,
   39.7584,       776,
   39.7887,       792,
    39.819,       840,
   39.8494,       818,
   39.8797,       833,
     39.91,       816,
   39.9404,       831,
   39.9707,       834,
    40.001,       850,
   40.0313,       829,
   40.0617,       882,
    40.092,       880,
   40.1223,       823,
   40.1527,       778,
    40.183,       807,
   40.2133,       804,
   40.2436,       768,
    40.274,       814,
   40.3043,       791,
   40.3346,       802,
    40.365,       795,
   40.3953,       822,
   40.4256,       835,
   40.4559,       792,
   40.4863,       784,
   40.5166,       861,
   40.5469,       849,
   40.5773,       821,
   40.6076,       825,
   40.6379,       840,
   40.6682,       821,
   40.6986,       824,
   40.7289,       803,
   40.7592,       831,
   40.7895,       801,
   40.8199,       792,
   40.8502,       774,
   40.8805,       832,
   40.9109,       812,
   40.9412,       793,
   40.9715,       789,
   41.0018,       802,
   41.0322,       796,
   41.0625,       802,
   41.0928,       780,
   41.1232,       805,
   41.1535,       767,
   41.1838,       767,
   41.2141,       807,
   41.2445,       761,
   41.2748,       774,
   41.3051,       777,
   41.3355,       827,
   41.3658,       797,
   41.3961,       788,
   41.4264,       784,
   41.4568,       815,
   41.4871,       772,
   41.5174,       821,
   41.5478,       839,
   41.5781,       812,
   41.6084,       791,
   41.6387,       874,
   41.6691,       846,
   41.6994,       874,
   41.7297,       937,
   41.7601,       901,
   41.7904,       963,
   41.8207,      1018,
    41.851,       987,
   41.8814,      1019,
   41.9117,      1068,
    41.942,      1140,
   41.9723,      1217,
   42.0027,      1233,
    42.033,      1367,
   42.0633,      1485,
   42.0937,      1731,
    42.124,      1887,
   42.1543,      2181,
   42.1846,      2449,
    42.215,      2605,
   42.2453,      2791,
   42.2756,      2751,
    42.306,      2720,
   42.3363,      2439,
   42.3666,      2314,
   42.3969,      2120,
   42.4273,      1954,
   42.4576,      1813,
   42.4879,      1786,
   42.5183,      1587,
   42.5486,      1630,
   42.5789,      1537,
   42.6092,      1611,
   42.6396,      1504,
   42.6699,      1532,
   42.7002,      1439,
   42.7306,      1381,
   42.7609,      1351,
   42.7912,      1298,
   42.8215,      1199,
   42.8519,      1168,
   42.8822,      1173,
   42.9125,      1103,
   42.9428,      1037,
   42.9732,      1025,
   43.0035,      1017,
   43.0338,       953,
   43.0642,       900,
   43.0945,       945,
   43.1248,       949,
   43.1551,       930,
   43.1855,       923,
   43.2158,       903,
   43.2461,       965,
   43.2765,       973,
   43.3068,       907,
   43.3371,       973,
   43.3674,      1011,
   43.3978,      1067,
   43.4281,      1150,
   43.4584,      1185,
   43.4888,      1193,
   43.5191,      1208,
   43.5494,      1345,
   43.5797,      1428,
   43.6101,      1461,
   43.6404,      1514,
   43.6707,      1453,
   43.7011,      1434,
   43.7314,      1389,
   43.7617,      1235,
    43.792,      1229,
   43.8224,      1194,
   43.8527,      1125,
    43.883,      1160,
   43.9133,      1066,
   43.9437,      1108,
    43.974,      1134,
   44.0043,      1132,
   44.0347,      1187,
    44.065,      1184,
   44.0953,      1309,
   44.1256,      1410,
    44.156,      1523,
   44.1863,      1761,
   44.2166,      1986,
    44.247,      2386,
   44.2773,      2812,
   44.3076,      3192,
   44.3379,      3377,
   44.3683,      3078,
   44.3986,      2859,
   44.4289,      2634,
   44.4593,      2340,
   44.4896,      1988,
   44.5199,      1795,
   44.5502,      1594,
   44.5806,      1495,
   44.6109,      1394,
   44.6412,      1354,
   44.6716,      1327,
   44.7019,      1430,
   44.7322,      1441,
   44.7625,      1416,
   44.7929,      1481,
   44.8232,      1531,
   44.8535,      1672,
   44.8838,      1796,
   44.9142,      1914,
   44.9445,      2081,
   44.9748,      2157,
   45.0052,      2156,
   45.0355,      2224,
   45.0658,      2150,
   45.0961,      2176,
   45.1265,      2179,
   45.1568,      2148,
   45.1871,      2191,
   45.2175,      2094,
   45.2478,      1924,
   45.2781,      1647,
   45.3084,      1614,
   45.3388,      1456,
   45.3691,      1340,
   45.3994,      1209,
   45.4298,      1080,
   45.4601,      1063,
   45.4904,      1008,
   45.5207,       937,
   45.5511,       934,
   45.5814,       913,
   45.6117,       829,
   45.6421,       839,
   45.6724,       803,
   45.7027,       819,
    45.733,       786,
   45.7634,       770,
   45.7937,       730,
    45.824,       732,
   45.8543,       755,
   45.8847,       776,
    45.915,       729,
   45.9453,       765,
   45.9757,       701,
    46.006,       773,
   46.0363,       764,
   46.0666,       732,
    46.097,       752,
   46.1273,       744,
   46.1576,       792,
    46.188,       771,
   46.2183,       812,
   46.2486,       807,
   46.2789,       801,
   46.3093,       884,
   46.3396,       787,
   46.3699,       836,
   46.4003,       825,
   46.4306,       891,
   46.4609,       800,
   46.4912,       855,
   46.5216,       923,
   46.5519,       962,
   46.5822,       968,
   46.6126,      1060,
   46.6429,      1124,
   46.6732,      1154,
   46.7035,      1198,
   46.7339,      1287,
   46.7642,      1340,
   46.7945,      1388,
   46.8249,      1367,
   46.8552,      1330,
   46.8855,      1261,
   46.9158,      1230,
   46.9462,      1142,
   46.9765,      1140,
   47.0068,      1071,
   47.0371,      1046,
   47.0675,      1005,
   47.0978,      1003,
   47.1281,       965,
   47.1585,       871,
   47.1888,       842,
   47.2191,       805,
   47.2494,       835,
   47.2798,       834,
   47.3101,       826,
   47.3404,       769,
   47.3708,       765,
   47.4011,       751,
   47.4314,       799,
   47.4617,       791,
   47.4921,       792,
   47.5224,       780,
   47.5527,       746,
   47.5831,       803,
   47.6134,       753,
   47.6437,       735,
    47.674,       747,
   47.7044,       788,
   47.7347,       752,
    47.765,       731,
   47.7954,       760,
   47.8257,       761,
    47.856,       784,
   47.8863,       818,
   47.9167,       797,
    47.947,       900,
   47.9773,       837,
   48.0076,       889,
    48.038,       867,
   48.0683,       937,
   48.0986,       978,
    48.129,      1068,
   48.1593,      1056,
   48.1896,      1126,
   48.2199,      1177,
   48.2503,      1305,
   48.2806,      1301,
   48.3109,      1305,
   48.3413,      1247,
   48.3716,      1172,
   48.4019,      1162,
   48.4322,      1066,
   48.4626,      1005,
   48.4929,       950,
   48.5232,       874,
   48.5536,       819,
   48.5839,       810,
   48.6142,       744,
   48.6445,       753,
   48.6749,       759,
   48.7052,       785,
   48.7355,       744,
   48.7659,       770,
   48.7962,       715,
   48.8265,       704,
   48.8568,       691,
   48.8872,       660,
   48.9175,       705,
   48.9478,       700,
   48.9781,       662,
   49.0085,       652,
   49.0388,       660,
   49.0691,       698,
   49.0995,       667,
   49.1298,       668,
   49.1601,       627,
   49.1904,       644,
   49.2208,       702,
   49.2511,       650,
   49.2814,       641,
   49.3118,       667,
   49.3421,       663,
   49.3724,       678,
   49.4027,       627,
   49.4331,       671,
   49.4634,       612,
   49.4937,       648,
   49.5241,       675,
   49.5544,       609,
   49.5847,       656,
    49.615,       689,
   49.6454,       658,
   49.6757,       667,
    49.706,       679,
   49.7364,       687,
   49.7667,       711,
    49.797,       675,
   49.8273,       714,
   49.8577,       726,
    49.888,       713,
   49.9183,       750,
   49.9486,       762,
    49.979,       760,
   50.0093,       753,
   50.0396,       805,
     50.07,       829,
   50.1003,       928,
   50.1306,       954,
   50.1609,      1029,
   50.1913,      1119,
   50.2216,      1344,
   50.2519,      1467,
   50.2823,      1544,
   50.3126,      1684,
   50.3429,      1650,
   50.3732,      1570,
   50.4036,      1527,
   50.4339,      1279,
   50.4642,      1262,
   50.4946,      1109,
   50.5249,      1002,
   50.5552,       970,
   50.5855,       885,
   50.6159,       912,
   50.6462,       825,
   50.6765,       838,
   50.7069,       795,
   50.7372,       774,
   50.7675,       778,
   50.7978,       773,
   50.8282,       785,
   50.8585,       774,
   50.8888,       786,
   50.9191,       778,
   50.9495,       735,
   50.9798,       859,
   51.0101,       820,
   51.0405,       829,
   51.0708,       845,
   51.1011,       900,
   51.1314,       984,
   51.1618,       936,
   51.1921,      1070,
   51.2224,      1132,
   51.2528,      1151,
   51.2831,      1156,
   51.3134,      1171,
   51.3437,      1208,
   51.3741,      1139,
   51.4044,      1181,
   51.4347,      1082,
   51.4651,      1039,
   51.4954,      1018,
   51.5257,       955,
    51.556,       936,
   51.5864,       910,
   51.6167,       834,
    51.647,       837,
   51.6774,       807,
   51.7077,       742,
    51.738,       782,
   51.7683,       768,
   51.7987,       741,
    51.829,       738,
   51.8593,       755,
   51.8897,       752,
     51.92,       723,
   51.9503,       694,
   51.9806,       711,
    52.011,       674,
   52.0413,       671,
   52.0716,       705,
   52.1019,       627,
   52.1323,       688,
   52.1626,       678,
   52.1929,       676,
   52.2233,       678,
   52.2536,       697,
   52.2839,       689,
   52.3142,       643,
   52.3446,       671,
   52.3749,       638,
   52.4052,       641,
   52.4356,       697,
   52.4659,       676,
   52.4962,       708,
   52.5265,       714,
   52.5569,       717,
   52.5872,       694,
   52.6175,       677,
   52.6479,       721,
   52.6782,       713,
   52.7085,       675,
   52.7388,       715,
   52.7692,       711,
   52.7995,       726,
   52.8298,       712,
   52.8602,       740,
   52.8905,       718,
   52.9208,       702,
   52.9511,       758,
   52.9815,       717,
   53.0118,       725,
   53.0421,       747,
   53.0724,       769,
   53.1028,       786,
   53.1331,       779,
   53.1634,       829,
   53.1938,       880,
   53.2241,       931,
   53.2544,      1011,
   53.2847,      1186,
   53.3151,      1178,
   53.3454,      1299,
   53.3757,      1390,
   53.4061,      1482,
   53.4364,      1419,
   53.4667,      1468,
    53.497,      1413,
   53.5274,      1450,
   53.5577,      1459,
    53.588,      1478,
   53.6184,      1672,
   53.6487,      1830,
    53.679,      2049,
   53.7093,      2400,
   53.7397,      2913,
     53.77,      3362,
   53.8003,      3823,
   53.8307,      4049,
    53.861,      3986,
   53.8913,      3672,
   53.9216,      3420,
    53.952,      3111,
   53.9823,      2703,
   54.0126,      2372,
   54.0429,      1997,
   54.0733,      1666,
   54.1036,      1431,
   54.1339,      1336,
   54.1643,      1190,
   54.1946,      1151,
   54.2249,      1024,
   54.2552,       910,
   54.2856,       937,
   54.3159,       881,
   54.3462,       876,
   54.3766,       797,
   54.4069,       837,
   54.4372,       796,
   54.4675,       775,
   54.4979,       826,
   54.5282,       760,
   54.5585,       785,
   54.5889,       692,
   54.6192,       728,
   54.6495,       714,
   54.6798,       667,
   54.7102,       649,
   54.7405,       735,
   54.7708,       700,
   54.8012,       654,
   54.8315,       718,
   54.8618,       678,
   54.8921,       634,
   54.9225,       697,
   54.9528,       671,
   54.9831,       652,
   55.0134,       639,
   55.0438,       607,
   55.0741,       658,
   55.1044,       703,
   55.1348,       658,
   55.1651,       676,
   55.1954,       665,
   55.2257,       649,
   55.2561,       659,
   55.2864,       692,
   55.3167,       632,
   55.3471,       666,
   55.3774,       725,
   55.4077,       710,
    55.438,       680,
   55.4684,       698,
   55.4987,       717,
    55.529,       650,
   55.5594,       655,
   55.5897,       716,
     55.62,       715,
   55.6503,       669,
   55.6807,       756,
    55.711,       714,
   55.7413,       690,
   55.7717,       757,
    55.802,       768,
   55.8323,       829,
   55.8626,       868,
    55.893,       900,
   55.9233,       978,
   55.9536,       981,
   55.9839,      1186,
   56.0143,      1314,
   56.0446,      1256,
   56.0749,      1151,
   56.1053,      1124,
   56.1356,      1153,
   56.1659,      1254,
   56.1962,      1019,
   56.2266,       989,
   56.2569,      1024,
   56.2872,      1116,
   56.3176,      1088,
   56.3479,      1108,
   56.3782,      1162,
   56.4085,      1190,
   56.4389,      1236,
   56.4692,      1366,
   56.4995,      1393,
   56.5299,      1526,
   56.5602,      1655,
   56.5905,      1734,
   56.6208,      1769,
   56.6512,      1849,
   56.6815,      2065,
   56.7118,      2262,
   56.7422,      2287,
   56.7725,      2518,
   56.8028,      2508,
   56.8331,      2579,
   56.8635,      2594,
   56.8938,      2561,
   56.9241,      2509,
   56.9544,      2392,
   56.9848,      2235,
   57.0151,      2112,
   57.0454,      1875,
   57.0758,      1798,
   57.1061,      1620,
   57.1364,      1447,
   57.1667,      1431,
   57.1971,      1301,
   57.2274,      1214,
   57.2577,      1147,
   57.2881,      1074,
   57.3184,      1009,
   57.3487,      1054,
    57.379,       930,
   57.4094,       981,
   57.4397,       943,
     57.47,       975,
   57.5004,       961,
   57.5307,       946,
    57.561,       945,
   57.5913,       999,
   57.6217,       975,
    57.652,      1059,
   57.6823,      1103,
   57.7127,      1095,
    57.743,      1151,
   57.7733,      1202,
   57.8036,      1137,
    57.834,      1099,
   57.8643,      1159,
   57.8946,      1184,
    57.925,      1117,
   57.9553,      1122,
   57.9856,      1080,
   58.0159,      1086,
   58.0463,      1028,
   58.0766,      1013,
   58.1069,      1017,
   58.1372,       960,
   58.1676,       960,
   58.1979,       939,
   58.2282,       873,
   58.2586,       882,
   58.2889,       866,
   58.3192,       844,
   58.3495,       806,
   58.3799,       817,
   58.4102,       820,
   58.4405,       773,
   58.4709,       836,
   58.5012,       845,
   58.5315,       845,
   58.5618,       831,
   58.5922,       840,
   58.6225,       863,
   58.6528,       870,
   58.6832,       864,
   58.7135,       920,
   58.7438,       897,
   58.7741,       954,
   58.8045,      1016,
   58.8348,      1017,
   58.8651,      1084,
   58.8955,      1225,
   58.9258,      1287,
   58.9561,      1407,
   58.9864,      1563,
   59.0168,      1622,
   59.0471,      1767,
   59.0774,      1808,
   59.1077,      1767,
   59.1381,      1724,
   59.1684,      1638,
   59.1987,      1504,
   59.2291,      1406,
   59.2594,      1308,
   59.2897,      1173,
     59.32,      1041,
   59.3504,       961,
   59.3807,       876,
    59.411,       797,
   59.4414,       772,
   59.4717,       722,
    59.502,       742,
   59.5323,       693,
   59.5627,       695,
    59.593,       681,
   59.6233,       693,
   59.6537,       655,
    59.684,       649,
   59.7143,       655,
   59.7446,       664,
    59.775,       648,
   59.8053,       652,
   59.8356,       633,
    59.866,       637,
   59.8963,       618,
   59.9266,       634,
   59.9569,       596,
   59.9873,       630,
   60.0176,       608,
   60.0479,       595,
   60.0782,       625,
   60.1086,       563,
   60.1389,       547,
   60.1692,       606,
   60.1996,       555,
   60.2299,       586,
   60.2602,       545,
   60.2905,       571,
   60.3209,       560,
   60.3512,       540,
   60.3815,       571,
   60.4119,       536,
   60.4422,       599,
   60.4725,       558,
   60.5028,       564,
   60.5332,       560,
   60.5635,       566,
   60.5938,       551,
   60.6242,       552,
   60.6545,       523,
   60.6848,       531,
   60.7151,       553,
   60.7455,       604,
   60.7758,       582,
   60.8061,       590,
   60.8365,       574,
   60.8668,       566,
   60.8971,       612,
   60.9274,       574,
   60.9578,       604,
   60.9881,       591,
   61.0184,       587,
   61.0487,       610,
   61.0791,       678,
   61.1094,       675,
   61.1397,       689,
   61.1701,       693,
   61.2004,       718,
   61.2307,       750,
    61.261,       684,
   61.2914,       673,
   61.3217,       699,
    61.352,       697,
   61.3824,       723,
   61.4127,       762,
    61.443,       749,
   61.4733,       817,
   61.5037,       904,
    61.534,       971,
   61.5643,      1072,
   61.5947,      1211,
    61.625,      1403,
   61.6553,      1623,
   61.6856,      1898,
    61.716,      1999,
   61.7463,      2117,
   61.7766,      2044,
    61.807,      1959,
   61.8373,      1867,
   61.8676,      1776,
   61.8979,      1614,
   61.9283,      1525,
   61.9586,      1372,
   61.9889,      1193,
   62.0192,      1093,
   62.0496,      1018,
   62.0799,       942,
   62.1102,       991,
   62.1406,       905,
   62.1709,       934,
   62.2012,      1022,
   62.2315,      1045,
   62.2619,      1096,
   62.2922,      1193,
   62.3225,      1251,
   62.3529,      1331,
   62.3832,      1384,
   62.4135,      1437,
   62.4438,      1456,
   62.4742,      1353,
   62.5045,      1253,
   62.5348,      1151,
   62.5652,      1095,
   62.5955,       967,
   62.6258,       929,
   62.6561,       888,
   62.6865,       845,
   62.7168,       757,
   62.7471,       679,
   62.7775,       657,
   62.8078,       657,
   62.8381,       610,
   62.8684,       605,
   62.8988,       604,
   62.9291,       557,
   62.9594,       545,
   62.9898,       515,
   63.0201,       535,
   63.0504,       510,
   63.0807,       497,
   63.1111,       527,
   63.1414,       534,
   63.1717,       507,
    63.202,       540,
   63.2324,       515,
   63.2627,       557,
    63.293,       533,
   63.3234,       512,
   63.3537,       533,
    63.384,       543,
   63.4143,       528,
   63.4447,       576,
    63.475,       572,
   63.5053,       589,
   63.5357,       574,
    63.566,       598,
   63.5963,       614,
   63.6266,       616,
    63.657,       605,
   63.6873,       546,
   63.7176,       545,
    63.748,       563,
   63.7783,       545,
   63.8086,       543,
   63.8389,       511,
   63.8693,       511,
   63.8996,       534,
   63.9299,       493,
   63.9603,       513,
   63.9906,       480,
   64.0209,       504,
   64.0512,       480,
   64.0816,       458,
   64.1119,       472,
   64.1422,       527,
   64.1725,       463,
   64.2029,       450,
   64.2332,       468,
   64.2635,       471,
   64.2939,       469,
   64.3242,       456,
   64.3545,       466,
   64.3848,       495,
   64.4152,       476,
   64.4455,       432,
   64.4758,       492,
   64.5062,       484,
   64.5365,       433,
   64.5668,       474,
   64.5971,       446,
   64.6275,       448,
   64.6578,       476,
   64.6881,       460,
   64.7185,       463,
   64.7488,       463,
   64.7791,       468,
   64.8094,       449,
   64.8398,       486,
   64.8701,       485,
   64.9004,       442,
   64.9308,       476,
   64.9611,       449,
   64.9914,       452,
   65.0217,       444,
   65.0521,       456,
   65.0824,       421,
   65.1127,       477,
    65.143,       423,
   65.1734,       448,
   65.2037,       434,
    65.234,       454,
   65.2644,       467,
   65.2947,       479,
    65.325,       435,
   65.3553,       452,
   65.3857,       407,
    65.416,       463,
   65.4463,       443,
   65.4767,       410,
    65.507,       468,
   65.5373,       483,
   65.5676,       447,
    65.598,       452,
   65.6283,       444,
   65.6586,       446,
    65.689,       447,
   65.7193,       410,
   65.7496,       454,
   65.7799,       485,
   65.8103,       465,
   65.8406,       472,
   65.8709,       464,
   65.9013,       462,
   65.9316,       449,
   65.9619,       437,
   65.9922,       487,
   66.0226,       514,
   66.0529,       500,
   66.0832,       496,
   66.1135,       504,
   66.1439,       496,
   66.1742,       546,
   66.2045,       515,
   66.2349,       587,
   66.2652,       582,
   66.2955,       541,
   66.3258,       546,
   66.3562,       535,
   66.3865,       561,
   66.4168,       515,
   66.4472,       583,
   66.4775,       537,
   66.5078,       551,
   66.5381,       575,
   66.5685,       535,
   66.5988,       542,
   66.6291,       559,
   66.6595,       557,
   66.6898,       532,
   66.7201,       570,
   66.7504,       581,
   66.7808,       549,
   66.8111,       525,
   66.8414,       558,
   66.8718,       567,
   66.9021,       533,
   66.9324,       520,
   66.9627,       502,
   66.9931,       550,
   67.0234,       567,
   67.0537,       528,
    67.084,       485,
   67.1144,       512,
   67.1447,       479,
    67.175,       512,
   67.2054,       523,
   67.2357,       494,
    67.266,       501,
   67.2963,       496,
   67.3267,       485,
    67.357,       468,
   67.3873,       445,
   67.4177,       461,
    67.448,       461,
   67.4783,       509,
   67.5086,       486,
    67.539,       498,
   67.5693,       480,
   67.5996,       505,
     67.63,       507,
   67.6603,       492,
   67.6906,       518,
   67.7209,       529,
   67.7513,       517,
   67.7816,       495,
   67.8119,       510,
   67.8423,       528,
   67.8726,       531,
   67.9029,       541,
   67.9332,       515,
   67.9636,       532,
   67.9939,       542,
   68.0242,       495,
   68.0546,       509,
   68.0849,       515,
   68.1152,       487,
   68.1455,       483,
   68.1759,       505,
   68.2062,       491,
   68.2365,       485,
   68.2668,       482,
   68.2972,       471,
   68.3275,       474,
   68.3578,       519,
   68.3882,       479,
   68.4185,       480,
   68.4488,       478,
   68.4791,       485,
   68.5095,       527,
   68.5398,       529,
   68.5701,       586,
   68.6005,       596,
   68.6308,       599,
   68.6611,       548,
   68.6914,       625,
   68.7218,       590,
   68.7521,       540,
   68.7824,       603,
   68.8128,       613,
   68.8431,       587,
   68.8734,       611,
   68.9037,       610,
   68.9341,       591,
   68.9644,       548,
   68.9947,       569,
   69.0251,       581,
   69.0554,       571,
   69.0857,       548,
    69.116,       558,
   69.1464,       547,
   69.1767,       513,
    69.207,       504,
   69.2373,       520,
   69.2677,       491,
    69.298,       524,
   69.3283,       472,
   69.3587,       521,
    69.389,       505,
   69.4193,       465,
   69.4496,       492,
     69.48,       478,
   69.5103,       488,
   69.5406,       527,
    69.571,       478,
   69.6013,       482,
   69.6316,       499,
   69.6619,       475,
   69.6923,       516,
   69.7226,       500,
   69.7529,       540,
   69.7833,       510,
   69.8136,       508,
   69.8439,       489,
   69.8742,       567,
   69.9046,       591,
   69.9349,       559,
   69.9652,       551,
   69.9956,       637,
