;RAW4.00
[RawHeader]
Date=11/13/2019
EstimatedTotalTime=1739.61
FurtherDQLReading=0
HardwareIndicator=65519
MeasuredTotalTime=1739.61
MeasurementFlag=1
NumberOfMeasuredRanges=1
NumberOfRanges=1
Time=15:54:59

[VarInfo]
Type=USER
Flags=0
Value=Bruker Service

[VarInfo]
Type=SAMPLEID
Flags=0
Value=Commander Sample ID

[VarInfo]
Type=COMMENT
Flags=0
Value=

[VarInfo]
Type=UTF
Flags=0
Value=

[VarInfo]
Type=CREATOR
Flags=0
Value=BrmlToV4Converter

[VarInfo]
Type=CREATOR_VERSION
Flags=0
Value=7.3.0.0

[HardwareConfiguration]
AbsorptionFactor=9999
ActivateAbsorber=0
Alpha1=1.78897
Alpha2=1.79285
AlphaAverage=1.79026
AlphaRatio=0.5
Analyzer=0
Anode=Co
AntiScatteringSlit=9999
BeamOpticsFlags=0
Beta=1.62079
BetaRelativeIntensity=0
DeactivateAbsorber=0
DetectorSlit=9999
DivergenceSlit=1
GoniometerControl=0
GoniometerDiameter=282
GoniometerModel=256
GoniometerStage=7
Monochromator=0
NearSampleSlit=9999
PrimarySollerSlit=9999
SampleChanger=0
SecondSollerSlit=9999
SynchronousAxis=0
ThinFilmAttachment=9999
WaveUnit=A

[RangeHeader]
ActuallyUsedLambda=1.79026
AdditionalDetectorMask=257
DataRecordLength=4
DelayTime=0
DisplayPlaneNumber=0
EstimatedScanTime=1740
ExtraParametersMask=0
GeneratorCurrent=10
GeneratorVoltage=30
Increment=0.0202188
Increment3=0
NumberOfCompletedData=3216
NumberOfCounts=1
NumberOfDetectors=0
NumberOfDrives=2
NumberOfEncoderDrives=0
NumberOfMeasuredData=3216
NumberOfVaryingParameters=0
RangeStartTime=0
RotationSpeed=1
ScanMode=1
ScanType=Locked Coupled
SimulatedMeasConditions=0
SlitChangerIn=0
SmootingWidth=0
Start=5.00234
Steps=3216
SynchronousRotation=0
Time=82.5

[VarInfo]
Type=PSD_DISCRIM
Flags=0
Value=0.11;0.25

[PSD]
ActualTwoTheta=9999
FirstUsedChannel=0
FixedPSD=0
PSDOpening=5.00414
PSDType=5

[Drive]
DriveFlags=1
DriveName=2Theta
DriveNumber=2
DriveOffset=0
OffsetIndex=0
OscillationAmplitude=0
OscillationSpeed=0
StartPosition=5.00234

[Drive]
DriveFlags=1
DriveName=Theta
DriveNumber=1
DriveOffset=0
OffsetIndex=0
OscillationAmplitude=0
OscillationSpeed=0
StartPosition=2.50117

[Data]
     Angle,       PSD,
   5.00234,      3900,
   5.02256,      3796,
   5.04278,      3828,
     5.063,      3727,
   5.08322,      3600,
   5.10344,      3492,
   5.12365,      3343,
   5.14387,      3377,
   5.16409,      3261,
   5.18431,      3328,
   5.20453,      3175,
   5.22475,      3241,
   5.24497,      3120,
   5.26519,      3214,
    5.2854,      3124,
   5.30562,      3064,
   5.32584,      2973,
   5.34606,      2975,
   5.36628,      2993,
    5.3865,      2844,
   5.40672,      2914,
   5.42694,      2863,
   5.44715,      2871,
   5.46737,      2771,
   5.48759,      2778,
   5.50781,      2765,
   5.52803,      2754,
   5.54825,      2782,
   5.56847,      2593,
   5.58869,      2666,
    5.6089,      2585,
   5.62912,      2648,
   5.64934,      2511,
   5.66956,      2642,
   5.68978,      2507,
      5.71,      2533,
   5.73022,      2515,
   5.75044,      2530,
   5.77065,      2521,
   5.79087,      2441,
   5.81109,      2379,
   5.83131,      2476,
   5.85153,      2385,
   5.87175,      2433,
   5.89197,      2333,
   5.91219,      2305,
    5.9324,      2329,
   5.95262,      2403,
   5.97284,      2294,
   5.99306,      2208,
   6.01328,      2225,
    6.0335,      2133,
   6.05372,      2241,
   6.07394,      2079,
   6.09415,      1999,
   6.11437,      2077,
   6.13459,      2123,
   6.15481,      2059,
   6.17503,      2025,
   6.19525,      2099,
   6.21547,      2024,
   6.23569,      1990,
    6.2559,      2046,
   6.27612,      2030,
   6.29634,      1945,
   6.31656,      1931,
   6.33678,      1967,
     6.357,      1981,
   6.37722,      1920,
   6.39744,      1933,
   6.41765,      1809,
   6.43787,      1847,
   6.45809,      1812,
   6.47831,      1747,
   6.49853,      1777,
   6.51875,      1756,
   6.53897,      1680,
   6.55919,      1653,
    6.5794,      1769,
   6.59962,      1647,
   6.61984,      1685,
   6.64006,      1641,
   6.66028,      1681,
    6.6805,      1619,
   6.70072,      1605,
   6.72094,      1614,
   6.74116,      1548,
   6.76137,      1516,
   6.78159,      1502,
   6.80181,      1579,
   6.82203,      1568,
   6.84225,      1584,
   6.86247,      1605,
   6.88269,      1479,
   6.90291,      1500,
   6.92312,      1456,
   6.94334,      1484,
   6.96356,      1440,
   6.98378,      1381,
     7.004,      1464,
   7.02422,      1443,
   7.04444,      1376,
   7.06466,      1394,
   7.08487,      1365,
   7.10509,      1458,
   7.12531,      1418,
   7.14553,      1369,
   7.16575,      1392,
   7.18597,      1311,
   7.20619,      1341,
   7.22641,      1259,
   7.24662,      1285,
   7.26684,      1349,
   7.28706,      1257,
   7.30728,      1284,
    7.3275,      1246,
   7.34772,      1302,
   7.36794,      1230,
   7.38816,      1316,
   7.40837,      1250,
   7.42859,      1162,
   7.44881,      1165,
   7.46903,      1198,
   7.48925,      1166,
   7.50947,      1144,
   7.52969,      1226,
   7.54991,      1170,
   7.57012,      1113,
   7.59034,      1156,
   7.61056,      1170,
   7.63078,      1079,
     7.651,      1126,
   7.67122,      1090,
   7.69144,      1084,
   7.71166,      1073,
   7.73187,      1072,
   7.75209,      1120,
   7.77231,      1067,
   7.79253,      1033,
   7.81275,       992,
   7.83297,      1015,
   7.85319,      1018,
   7.87341,      1037,
   7.89362,      1009,
   7.91384,       946,
   7.93406,      1058,
   7.95428,      1016,
    7.9745,       939,
   7.99472,      1055,
   8.01494,       959,
   8.03516,       966,
   8.05537,       980,
   8.07559,       977,
   8.09581,      1000,
   8.11603,       913,
   8.13625,       933,
   8.15647,       956,
   8.17669,       912,
   8.19691,       932,
   8.21712,       942,
   8.23734,       872,
   8.25756,       840,
   8.27778,       900,
     8.298,       880,
   8.31822,       909,
   8.33844,       921,
   8.35866,       874,
   8.37887,       864,
   8.39909,       885,
   8.41931,       849,
   8.43953,       870,
   8.45975,       854,
   8.47997,       855,
   8.50019,       819,
   8.52041,       883,
   8.54062,       820,
   8.56084,       796,
   8.58106,       825,
   8.60128,       844,
    8.6215,       820,
   8.64172,       792,
   8.66194,       832,
   8.68216,       804,
   8.70237,       798,
   8.72259,       776,
   8.74281,       779,
   8.76303,       726,
   8.78325,       748,
   8.80347,       808,
   8.82369,       795,
   8.84391,       738,
   8.86413,       785,
   8.88434,       805,
   8.90456,       710,
   8.92478,       715,
     8.945,       730,
   8.96522,       766,
   8.98544,       698,
   9.00566,       795,
   9.02588,       748,
   9.04609,       713,
   9.06631,       735,
   9.08653,       723,
   9.10675,       782,
   9.12697,       714,
   9.14719,       729,
   9.16741,       774,
   9.18763,       735,
   9.20784,       722,
   9.22806,       651,
   9.24828,       682,
    9.2685,       722,
   9.28872,       715,
   9.30894,       667,
   9.32916,       637,
   9.34938,       731,
   9.36959,       709,
   9.38981,       680,
   9.41003,       656,
   9.43025,       654,
   9.45047,       654,
   9.47069,       701,
   9.49091,       641,
   9.51113,       657,
   9.53134,       715,
   9.55156,       715,
   9.57178,       733,
     9.592,       676,
   9.61222,       674,
   9.63244,       671,
   9.65266,       611,
   9.67288,       685,
   9.69309,       659,
   9.71331,       623,
   9.73353,       651,
   9.75375,       720,
   9.77397,       662,
   9.79419,       681,
   9.81441,       630,
   9.83463,       682,
   9.85484,       651,
   9.87506,       685,
   9.89528,       657,
    9.9155,       675,
   9.93572,       696,
   9.95594,       618,
   9.97616,       593,
   9.99638,       626,
   10.0166,       685,
   10.0368,       646,
    10.057,       630,
   10.0773,       705,
   10.0975,       594,
   10.1177,       674,
   10.1379,       576,
   10.1581,       607,
   10.1783,       627,
   10.1986,       661,
   10.2188,       621,
    10.239,       590,
   10.2592,       614,
   10.2794,       629,
   10.2997,       639,
   10.3199,       683,
   10.3401,       645,
   10.3603,       630,
   10.3805,       614,
   10.4008,       607,
    10.421,       649,
   10.4412,       643,
   10.4614,       686,
   10.4816,       622,
   10.5018,       616,
   10.5221,       649,
   10.5423,       600,
   10.5625,       651,
   10.5827,       604,
   10.6029,       635,
   10.6232,       590,
   10.6434,       665,
   10.6636,       642,
   10.6838,       588,
    10.704,       674,
   10.7243,       627,
   10.7445,       621,
   10.7647,       612,
   10.7849,       587,
   10.8051,       652,
   10.8253,       589,
   10.8456,       582,
   10.8658,       614,
    10.886,       614,
   10.9062,       594,
   10.9264,       631,
   10.9467,       613,
   10.9669,       671,
   10.9871,       592,
   11.0073,       594,
   11.0275,       596,
   11.0478,       599,
    11.068,       585,
   11.0882,       584,
   11.1084,       582,
   11.1286,       641,
   11.1488,       597,
   11.1691,       626,
   11.1893,       594,
   11.2095,       588,
   11.2297,       596,
   11.2499,       604,
   11.2702,       610,
   11.2904,       603,
   11.3106,       613,
   11.3308,       659,
    11.351,       639,
   11.3713,       604,
   11.3915,       604,
   11.4117,       608,
   11.4319,       657,
   11.4521,       547,
   11.4723,       594,
   11.4926,       595,
   11.5128,       569,
    11.533,       638,
   11.5532,       605,
   11.5734,       580,
   11.5937,       574,
   11.6139,       621,
   11.6341,       587,
   11.6543,       570,
   11.6745,       649,
   11.6948,       583,
    11.715,       557,
   11.7352,       578,
   11.7554,       664,
   11.7756,       566,
   11.7958,       595,
   11.8161,       607,
   11.8363,       587,
   11.8565,       578,
   11.8767,       568,
   11.8969,       569,
   11.9172,       559,
   11.9374,       612,
   11.9576,       557,
   11.9778,       586,
    11.998,       580,
   12.0183,       591,
   12.0385,       583,
   12.0587,       606,
   12.0789,       586,
   12.0991,       583,
   12.1193,       565,
   12.1396,       548,
   12.1598,       580,
     12.18,       557,
   12.2002,       579,
   12.2204,       544,
   12.2407,       556,
   12.2609,       549,
   12.2811,       594,
   12.3013,       626,
   12.3215,       622,
   12.3418,       611,
    12.362,       557,
   12.3822,       572,
   12.4024,       603,
   12.4226,       640,
   12.4428,       682,
   12.4631,       637,
   12.4833,       641,
   12.5035,       632,
   12.5237,       613,
   12.5439,       534,
   12.5642,       578,
   12.5844,       560,
   12.6046,       524,
   12.6248,       566,
    12.645,       586,
   12.6653,       599,
   12.6855,       532,
   12.7057,       552,
   12.7259,       531,
   12.7461,       582,
   12.7663,       595,
   12.7866,       569,
   12.8068,       599,
    12.827,       585,
   12.8472,       599,
   12.8674,       568,
   12.8877,       567,
   12.9079,       585,
   12.9281,       514,
   12.9483,       613,
   12.9685,       550,
   12.9888,       609,
    13.009,       606,
   13.0292,       574,
   13.0494,       542,
   13.0696,       579,
   13.0898,       547,
   13.1101,       557,
   13.1303,       532,
   13.1505,       589,
   13.1707,       595,
   13.1909,       542,
   13.2112,       590,
   13.2314,       586,
   13.2516,       549,
   13.2718,       563,
    13.292,       603,
   13.3123,       622,
   13.3325,       559,
   13.3527,       621,
   13.3729,       574,
   13.3931,       602,
   13.4133,       664,
   13.4336,       622,
   13.4538,       641,
    13.474,       691,
   13.4942,       678,
   13.5144,       734,
   13.5347,       805,
   13.5549,       889,
   13.5751,       911,
   13.5953,      1037,
   13.6155,      1242,
   13.6358,      1612,
    13.656,      2058,
   13.6762,      2464,
   13.6964,      3070,
   13.7166,      3822,
   13.7368,      4048,
   13.7571,      3445,
   13.7773,      2838,
   13.7975,      2199,
   13.8177,      1619,
   13.8379,      1214,
   13.8582,       925,
   13.8784,       752,
   13.8986,       695,
   13.9188,       639,
    13.939,       693,
   13.9593,       663,
   13.9795,       601,
   13.9997,       619,
   14.0199,       643,
   14.0401,       579,
   14.0603,       591,
   14.0806,       581,
   14.1008,       523,
    14.121,       549,
   14.1412,       604,
   14.1614,       624,
   14.1817,       594,
   14.2019,       589,
   14.2221,       587,
   14.2423,       558,
   14.2625,       552,
   14.2828,       539,
    14.303,       532,
   14.3232,       562,
   14.3434,       532,
   14.3636,       566,
   14.3838,       579,
   14.4041,       559,
   14.4243,       531,
   14.4445,       549,
   14.4647,       575,
   14.4849,       540,
   14.5052,       548,
   14.5254,       531,
   14.5456,       579,
   14.5658,       560,
    14.586,       578,
   14.6063,       587,
   14.6265,       519,
   14.6467,       559,
   14.6669,       519,
   14.6871,       536,
   14.7073,       560,
   14.7276,       569,
   14.7478,       509,
    14.768,       580,
   14.7882,       589,
   14.8084,       503,
   14.8287,       517,
   14.8489,       534,
   14.8691,       511,
   14.8893,       555,
   14.9095,       577,
   14.9298,       548,
     14.95,       521,
   14.9702,       539,
   14.9904,       543,
   15.0106,       538,
   15.0308,       554,
   15.0511,       548,
   15.0713,       540,
   15.0915,       550,
   15.1117,       547,
   15.1319,       550,
   15.1522,       536,
   15.1724,       502,
   15.1926,       538,
   15.2128,       506,
    15.233,       539,
   15.2533,       491,
   15.2735,       534,
   15.2937,       539,
   15.3139,       527,
   15.3341,       477,
   15.3543,       505,
   15.3746,       518,
   15.3948,       524,
    15.415,       523,
   15.4352,       521,
   15.4554,       489,
   15.4757,       591,
   15.4959,       531,
   15.5161,       491,
   15.5363,       515,
   15.5565,       519,
   15.5768,       491,
    15.597,       499,
   15.6172,       473,
   15.6374,       507,
   15.6576,       469,
   15.6778,       516,
   15.6981,       509,
   15.7183,       554,
   15.7385,       563,
   15.7587,       537,
   15.7789,       521,
   15.7992,       538,
   15.8194,       506,
   15.8396,       515,
   15.8598,       526,
     15.88,       475,
   15.9003,       528,
   15.9205,       493,
   15.9407,       518,
   15.9609,       530,
   15.9811,       518,
   16.0013,       514,
   16.0216,       513,
   16.0418,       511,
    16.062,       530,
   16.0822,       495,
   16.1024,       563,
   16.1227,       495,
   16.1429,       495,
   16.1631,       462,
   16.1833,       506,
   16.2035,       518,
   16.2238,       458,
    16.244,       454,
   16.2642,       517,
   16.2844,       487,
   16.3046,       491,
   16.3248,       490,
   16.3451,       492,
   16.3653,       503,
   16.3855,       534,
   16.4057,       469,
   16.4259,       481,
   16.4462,       538,
   16.4664,       446,
   16.4866,       476,
   16.5068,       519,
    16.527,       509,
   16.5473,       503,
   16.5675,       517,
   16.5877,       488,
   16.6079,       534,
   16.6281,       503,
   16.6483,       493,
   16.6686,       470,
   16.6888,       494,
    16.709,       480,
   16.7292,       489,
   16.7494,       533,
   16.7697,       526,
   16.7899,       503,
   16.8101,       467,
   16.8303,       456,
   16.8505,       487,
   16.8708,       492,
    16.891,       430,
   16.9112,       493,
   16.9314,       477,
   16.9516,       471,
   16.9718,       480,
   16.9921,       481,
   17.0123,       458,
   17.0325,       488,
   17.0527,       494,
   17.0729,       485,
   17.0932,       452,
   17.1134,       446,
   17.1336,       442,
   17.1538,       478,
    17.174,       473,
   17.1943,       495,
   17.2145,       472,
   17.2347,       510,
   17.2549,       486,
   17.2751,       444,
   17.2953,       489,
   17.3156,       501,
   17.3358,       463,
    17.356,       453,
   17.3762,       475,
   17.3964,       513,
   17.4167,       503,
   17.4369,       519,
   17.4571,       408,
   17.4773,       471,
   17.4975,       460,
   17.5178,       474,
    17.538,       494,
   17.5582,       461,
   17.5784,       438,
   17.5986,       468,
   17.6188,       477,
   17.6391,       434,
   17.6593,       464,
   17.6795,       454,
   17.6997,       511,
   17.7199,       404,
   17.7402,       447,
   17.7604,       487,
   17.7806,       491,
   17.8008,       440,
    17.821,       480,
   17.8413,       430,
   17.8615,       428,
   17.8817,       453,
   17.9019,       485,
   17.9221,       501,
   17.9423,       514,
   17.9626,       497,
   17.9828,       481,
    18.003,       490,
   18.0232,       528,
   18.0434,       491,
   18.0637,       466,
   18.0839,       518,
   18.1041,       499,
   18.1243,       452,
   18.1445,       461,
   18.1648,       460,
    18.185,       445,
   18.2052,       467,
   18.2254,       458,
   18.2456,       498,
   18.2658,       447,
   18.2861,       475,
   18.3063,       484,
   18.3265,       442,
   18.3467,       464,
   18.3669,       430,
   18.3872,       444,
   18.4074,       442,
   18.4276,       477,
   18.4478,       422,
    18.468,       425,
   18.4883,       450,
   18.5085,       451,
   18.5287,       459,
   18.5489,       454,
   18.5691,       487,
   18.5893,       471,
   18.6096,       466,
   18.6298,       498,
     18.65,       459,
   18.6702,       433,
   18.6904,       438,
   18.7107,       461,
   18.7309,       385,
   18.7511,       417,
   18.7713,       463,
   18.7915,       479,
   18.8118,       443,
    18.832,       399,
   18.8522,       450,
   18.8724,       438,
   18.8926,       396,
   18.9128,       420,
   18.9331,       440,
   18.9533,       425,
   18.9735,       410,
   18.9937,       475,
   19.0139,       406,
   19.0342,       490,
   19.0544,       485,
   19.0746,       448,
   19.0948,       495,
    19.115,       513,
   19.1353,       508,
   19.1555,       491,
   19.1757,       478,
   19.1959,       472,
   19.2161,       417,
   19.2363,       470,
   19.2566,       437,
   19.2768,       431,
    19.297,       444,
   19.3172,       398,
   19.3374,       504,
   19.3577,       437,
   19.3779,       427,
   19.3981,       478,
   19.4183,       451,
   19.4385,       431,
   19.4588,       465,
    19.479,       470,
   19.4992,       472,
   19.5194,       457,
   19.5396,       454,
   19.5599,       407,
   19.5801,       480,
   19.6003,       466,
   19.6205,       470,
   19.6407,       514,
   19.6609,       500,
   19.6812,       460,
   19.7014,       470,
   19.7216,       467,
   19.7418,       472,
    19.762,       479,
   19.7823,       455,
   19.8025,       406,
   19.8227,       390,
   19.8429,       452,
   19.8631,       459,
   19.8834,       386,
   19.9036,       459,
   19.9238,       428,
    19.944,       431,
   19.9642,       434,
   19.9844,       451,
   20.0047,       454,
   20.0249,       477,
   20.0451,       407,
   20.0653,       463,
   20.0855,       419,
   20.1058,       417,
    20.126,       452,
   20.1462,       439,
   20.1664,       448,
   20.1866,       407,
   20.2069,       403,
   20.2271,       406,
   20.2473,       458,
   20.2675,       443,
   20.2877,       443,
   20.3079,       435,
   20.3282,       432,
   20.3484,       478,
   20.3686,       471,
   20.3888,       437,
    20.409,       466,
   20.4293,       475,
   20.4495,       483,
   20.4697,       466,
   20.4899,       454,
   20.5101,       414,
   20.5304,       420,
   20.5506,       462,
   20.5708,       446,
    20.591,       398,
   20.6112,       436,
   20.6314,       405,
   20.6517,       416,
   20.6719,       440,
   20.6921,       407,
   20.7123,       411,
   20.7325,       425,
   20.7528,       468,
    20.773,       450,
   20.7932,       426,
   20.8134,       437,
   20.8336,       423,
   20.8539,       446,
   20.8741,       412,
   20.8943,       391,
   20.9145,       433,
   20.9347,       419,
   20.9549,       440,
   20.9752,       428,
   20.9954,       405,
   21.0156,       442,
   21.0358,       419,
    21.056,       448,
   21.0763,       479,
   21.0965,       418,
   21.1167,       468,
   21.1369,       430,
   21.1571,       423,
   21.1774,       484,
   21.1976,       499,
   21.2178,       520,
    21.238,       522,
   21.2582,       505,
   21.2784,       499,
   21.2987,       547,
   21.3189,       557,
   21.3391,       476,
   21.3593,       515,
   21.3795,       493,
   21.3998,       500,
     21.42,       454,
   21.4402,       473,
   21.4604,       411,
   21.4806,       409,
   21.5009,       445,
   21.5211,       447,
   21.5413,       415,
   21.5615,       363,
   21.5817,       395,
   21.6019,       403,
   21.6222,       429,
   21.6424,       420,
   21.6626,       384,
   21.6828,       399,
    21.703,       427,
   21.7233,       357,
   21.7435,       400,
   21.7637,       407,
   21.7839,       419,
   21.8041,       450,
   21.8244,       477,
   21.8446,       475,
   21.8648,       429,
    21.885,       432,
   21.9052,       449,
   21.9254,       459,
   21.9457,       533,
   21.9659,       517,
   21.9861,       522,
   22.0063,       518,
   22.0265,       504,
   22.0468,       503,
    22.067,       487,
   22.0872,       474,
   22.1074,       465,
   22.1276,       474,
   22.1479,       471,
   22.1681,       557,
   22.1883,       524,
   22.2085,       572,
   22.2287,       540,
   22.2489,       522,
   22.2692,       530,
   22.2894,       467,
   22.3096,       498,
   22.3298,       476,
     22.35,       481,
   22.3703,       415,
   22.3905,       404,
   22.4107,       458,
   22.4309,       425,
   22.4511,       412,
   22.4714,       445,
   22.4916,       418,
   22.5118,       443,
    22.532,       438,
   22.5522,       399,
   22.5724,       435,
   22.5927,       406,
   22.6129,       406,
   22.6331,       437,
   22.6533,       432,
   22.6735,       394,
   22.6938,       447,
    22.714,       406,
   22.7342,       457,
   22.7544,       397,
   22.7746,       411,
   22.7949,       367,
   22.8151,       439,
   22.8353,       427,
   22.8555,       416,
   22.8757,       431,
   22.8959,       452,
   22.9162,       457,
   22.9364,       456,
   22.9566,       433,
   22.9768,       402,
    22.997,       412,
   23.0173,       466,
   23.0375,       481,
   23.0577,       407,
   23.0779,       475,
   23.0981,       447,
   23.1184,       520,
   23.1386,       441,
   23.1588,       481,
    23.179,       433,
   23.1992,       443,
   23.2194,       422,
   23.2397,       420,
   23.2599,       434,
   23.2801,       465,
   23.3003,       487,
   23.3205,       458,
   23.3408,       461,
    23.361,       439,
   23.3812,       478,
   23.4014,       467,
   23.4216,       467,
   23.4419,       434,
   23.4621,       429,
   23.4823,       481,
   23.5025,       436,
   23.5227,       484,
   23.5429,       550,
   23.5632,       476,
   23.5834,       495,
   23.6036,       516,
   23.6238,       559,
    23.644,       653,
   23.6643,       610,
   23.6845,       571,
   23.7047,       609,
   23.7249,       610,
   23.7451,       568,
   23.7654,       611,
   23.7856,       586,
   23.8058,       574,
    23.826,       477,
   23.8462,       479,
   23.8664,       472,
   23.8867,       500,
   23.9069,       480,
   23.9271,       442,
   23.9473,       453,
   23.9675,       466,
   23.9878,       476,
    24.008,       459,
   24.0282,       428,
   24.0484,       403,
   24.0686,       448,
   24.0889,       457,
   24.1091,       507,
   24.1293,       470,
   24.1495,       503,
   24.1697,       526,
   24.1899,       549,
   24.2102,       581,
   24.2304,       613,
   24.2506,       695,
   24.2708,       683,
    24.291,       760,
   24.3113,       900,
   24.3315,       879,
   24.3517,       889,
   24.3719,       846,
   24.3921,       829,
   24.4124,       767,
   24.4326,       729,
   24.4528,       730,
    24.473,       745,
   24.4932,       667,
   24.5134,       553,
   24.5337,       565,
   24.5539,       505,
   24.5741,       492,
   24.5943,       491,
   24.6145,       482,
   24.6348,       468,
    24.655,       457,
   24.6752,       448,
   24.6954,       458,
   24.7156,       459,
   24.7359,       481,
   24.7561,       432,
   24.7763,       455,
   24.7965,       459,
   24.8167,       471,
   24.8369,       447,
   24.8572,       442,
   24.8774,       422,
   24.8976,       449,
   24.9178,       450,
    24.938,       446,
   24.9583,       488,
   24.9785,       435,
   24.9987,       433,
   25.0189,       455,
   25.0391,       455,
   25.0594,       430,
   25.0796,       428,
   25.0998,       422,
     25.12,       446,
   25.1402,       439,
   25.1604,       440,
   25.1807,       409,
   25.2009,       465,
   25.2211,       435,
   25.2413,       446,
   25.2615,       462,
   25.2818,       483,
    25.302,       490,
   25.3222,       481,
   25.3424,       493,
   25.3626,       588,
   25.3829,       579,
   25.4031,       607,
   25.4233,       651,
   25.4435,       716,
   25.4637,       647,
   25.4839,       635,
   25.5042,       590,
   25.5244,       570,
   25.5446,       546,
   25.5648,       470,
    25.585,       473,
   25.6053,       478,
   25.6255,       439,
   25.6457,       435,
   25.6659,       432,
   25.6861,       450,
   25.7064,       428,
   25.7266,       450,
   25.7468,       456,
    25.767,       546,
   25.7872,       492,
   25.8074,       493,
   25.8277,       480,
   25.8479,       478,
   25.8681,       485,
   25.8883,       464,
   25.9085,       444,
   25.9288,       444,
    25.949,       451,
   25.9692,       401,
   25.9894,       413,
   26.0096,       414,
   26.0299,       398,
   26.0501,       429,
   26.0703,       418,
   26.0905,       391,
   26.1107,       430,
   26.1309,       359,
   26.1512,       420,
   26.1714,       385,
   26.1916,       435,
   26.2118,       409,
    26.232,       381,
   26.2523,       385,
   26.2725,       367,
   26.2927,       408,
   26.3129,       422,
   26.3331,       418,
   26.3534,       431,
   26.3736,       447,
   26.3938,       419,
    26.414,       470,
   26.4342,       446,
   26.4544,       415,
   26.4747,       437,
   26.4949,       408,
   26.5151,       405,
   26.5353,       406,
   26.5555,       399,
   26.5758,       422,
    26.596,       440,
   26.6162,       448,
   26.6364,       433,
   26.6566,       403,
   26.6769,       398,
   26.6971,       414,
   26.7173,       394,
   26.7375,       389,
   26.7577,       399,
   26.7779,       380,
   26.7982,       386,
   26.8184,       444,
   26.8386,       415,
   26.8588,       457,
    26.879,       476,
   26.8993,       457,
   26.9195,       519,
   26.9397,       529,
   26.9599,       555,
   26.9801,       606,
   27.0004,       672,
   27.0206,       612,
   27.0408,       597,
    27.061,       596,
   27.0812,       575,
   27.1014,       544,
   27.1217,       520,
   27.1419,       488,
   27.1621,       486,
   27.1823,       475,
   27.2025,       475,
   27.2228,       518,
    27.243,       503,
   27.2632,       539,
   27.2834,       513,
   27.3036,       576,
   27.3239,       630,
   27.3441,       783,
   27.3643,      1153,
   27.3845,      1737,
   27.4047,      1869,
   27.4249,      1586,
   27.4452,      1525,
   27.4654,      1460,
   27.4856,      1138,
   27.5058,      1030,
    27.526,       792,
   27.5463,       686,
   27.5665,       649,
   27.5867,       518,
   27.6069,       535,
   27.6271,       525,
   27.6474,       479,
   27.6676,       480,
   27.6878,       476,
    27.708,       462,
   27.7282,       466,
   27.7484,       447,
   27.7687,       446,
   27.7889,       453,
   27.8091,       425,
   27.8293,       432,
   27.8495,       401,
   27.8698,       391,
     27.89,       419,
   27.9102,       424,
   27.9304,       392,
   27.9506,       381,
   27.9709,       394,
   27.9911,       398,
   28.0113,       386,
   28.0315,       385,
   28.0517,       416,
   28.0719,       402,
   28.0922,       405,
   28.1124,       371,
   28.1326,       382,
   28.1528,       396,
    28.173,       403,
   28.1933,       391,
   28.2135,       374,
   28.2337,       377,
   28.2539,       404,
   28.2741,       367,
   28.2944,       415,
   28.3146,       383,
   28.3348,       365,
    28.355,       389,
   28.3752,       383,
   28.3954,       368,
   28.4157,       409,
   28.4359,       412,
   28.4561,       396,
   28.4763,       366,
   28.4965,       424,
   28.5168,       414,
    28.537,       405,
   28.5572,       408,
   28.5774,       374,
   28.5976,       415,
   28.6179,       371,
   28.6381,       394,
   28.6583,       432,
   28.6785,       387,
   28.6987,       379,
   28.7189,       389,
   28.7392,       371,
   28.7594,       368,
   28.7796,       369,
   28.7998,       374,
     28.82,       360,
   28.8403,       396,
   28.8605,       392,
   28.8807,       407,
   28.9009,       429,
   28.9211,       405,
   28.9414,       430,
   28.9616,       434,
   28.9818,       379,
    29.002,       410,
   29.0222,       376,
   29.0424,       390,
   29.0627,       382,
   29.0829,       407,
   29.1031,       381,
   29.1233,       363,
   29.1435,       392,
   29.1638,       372,
    29.184,       397,
   29.2042,       412,
   29.2244,       413,
   29.2446,       382,
   29.2649,       417,
   29.2851,       385,
   29.3053,       394,
   29.3255,       411,
   29.3457,       391,
   29.3659,       399,
   29.3862,       409,
   29.4064,       436,
   29.4266,       365,
   29.4468,       400,
    29.467,       382,
   29.4873,       384,
   29.5075,       383,
   29.5277,       360,
   29.5479,       420,
   29.5681,       368,
   29.5884,       363,
   29.6086,       409,
   29.6288,       377,
    29.649,       398,
   29.6692,       357,
   29.6894,       328,
   29.7097,       359,
   29.7299,       405,
   29.7501,       354,
   29.7703,       372,
   29.7905,       377,
   29.8108,       358,
    29.831,       354,
   29.8512,       345,
   29.8714,       357,
   29.8916,       353,
   29.9119,       377,
   29.9321,       388,
   29.9523,       375,
   29.9725,       374,
   29.9927,       351,
   30.0129,       375,
   30.0332,       347,
   30.0534,       402,
   30.0736,       378,
   30.0938,       373,
    30.114,       363,
   30.1343,       356,
   30.1545,       357,
   30.1747,       359,
   30.1949,       378,
   30.2151,       380,
   30.2354,       382,
   30.2556,       355,
   30.2758,       393,
    30.296,       406,
   30.3162,       386,
   30.3365,       380,
   30.3567,       380,
   30.3769,       375,
   30.3971,       362,
   30.4173,       358,
   30.4375,       384,
   30.4578,       361,
    30.478,       389,
   30.4982,       403,
   30.5184,       380,
   30.5386,       436,
   30.5589,       390,
   30.5791,       470,
   30.5993,       521,
   30.6195,       570,
   30.6397,       695,
     30.66,       802,
   30.6802,       942,
   30.7004,      1066,
   30.7206,      1045,
   30.7408,       917,
    30.761,       903,
   30.7813,       820,
   30.8015,       686,
   30.8217,       611,
   30.8419,       513,
   30.8621,       521,
   30.8824,       430,
   30.9026,       469,
   30.9228,       416,
    30.943,       387,
   30.9632,       389,
   30.9835,       392,
   31.0037,       418,
   31.0239,       398,
   31.0441,       364,
   31.0643,       382,
   31.0845,       387,
   31.1048,       363,
    31.125,       382,
   31.1452,       422,
   31.1654,       427,
   31.1856,       398,
   31.2059,       423,
   31.2261,       485,
   31.2463,       463,
   31.2665,       479,
   31.2867,       456,
    31.307,       499,
   31.3272,       502,
   31.3474,       589,
   31.3676,       593,
   31.3878,       666,
    31.408,       706,
   31.4283,       845,
   31.4485,       953,
   31.4687,      1030,
   31.4889,      1056,
   31.5091,      1021,
   31.5294,       975,
   31.5496,       972,
   31.5698,       873,
     31.59,       862,
   31.6102,       719,
   31.6305,       714,
   31.6507,       588,
   31.6709,       536,
   31.6911,       541,
   31.7113,       477,
   31.7315,       506,
   31.7518,       575,
    31.772,       557,
   31.7922,       613,
   31.8124,       607,
   31.8326,       669,
   31.8529,       717,
   31.8731,       828,
   31.8933,       828,
   31.9135,       783,
   31.9337,       757,
    31.954,       761,
   31.9742,       728,
   31.9944,       751,
   32.0146,       788,
   32.0348,       919,
    32.055,      1044,
   32.0753,      1155,
   32.0955,      1173,
   32.1157,      1083,
   32.1359,      1053,
   32.1561,       970,
   32.1764,       821,
   32.1966,       749,
   32.2168,       619,
    32.237,       536,
   32.2572,       492,
   32.2775,       425,
   32.2977,       439,
   32.3179,       423,
   32.3381,       423,
   32.3583,       393,
   32.3785,       396,
   32.3988,       392,
    32.419,       317,
   32.4392,       350,
   32.4594,       362,
   32.4796,       359,
   32.4999,       368,
   32.5201,       393,
   32.5403,       339,
   32.5605,       371,
   32.5807,       401,
    32.601,       345,
   32.6212,       353,
   32.6414,       362,
   32.6616,       381,
   32.6818,       355,
    32.702,       372,
   32.7223,       365,
   32.7425,       367,
   32.7627,       368,
   32.7829,       384,
   32.8031,       362,
   32.8234,       364,
   32.8436,       332,
   32.8638,       369,
    32.884,       367,
   32.9042,       392,
   32.9245,       412,
   32.9447,       397,
   32.9649,       383,
   32.9851,       390,
   33.0053,       395,
   33.0255,       380,
   33.0458,       358,
    33.066,       392,
   33.0862,       352,
   33.1064,       359,
   33.1266,       368,
   33.1469,       332,
   33.1671,       320,
   33.1873,       378,
   33.2075,       391,
   33.2277,       332,
    33.248,       354,
   33.2682,       389,
   33.2884,       364,
   33.3086,       353,
   33.3288,       389,
    33.349,       372,
   33.3693,       371,
   33.3895,       355,
   33.4097,       372,
   33.4299,       348,
   33.4501,       367,
   33.4704,       395,
   33.4906,       415,
   33.5108,       536,
    33.531,       640,
   33.5512,       685,
   33.5715,       677,
   33.5917,       694,
   33.6119,       725,
   33.6321,       632,
   33.6523,       599,
   33.6725,       500,
   33.6928,       411,
    33.713,       425,
   33.7332,       417,
   33.7534,       377,
   33.7736,       400,
   33.7939,       367,
   33.8141,       400,
   33.8343,       388,
   33.8545,       392,
   33.8747,       370,
    33.895,       417,
   33.9152,       401,
   33.9354,       435,
   33.9556,       408,
   33.9758,       441,
    33.996,       450,
   34.0163,       481,
   34.0365,       551,
   34.0567,       628,
   34.0769,       793,
   34.0971,       899,
   34.1174,       952,
   34.1376,       944,
   34.1578,       964,
    34.178,       877,
   34.1982,       819,
   34.2185,       741,
   34.2387,       652,
   34.2589,       632,
   34.2791,       574,
   34.2993,       529,
   34.3195,       515,
   34.3398,       512,
     34.36,       486,
   34.3802,       547,
   34.4004,       514,
   34.4206,       591,
   34.4409,       759,
   34.4611,       839,
   34.4813,       953,
   34.5015,       995,
   34.5217,       938,
    34.542,       874,
   34.5622,       949,
   34.5824,       859,
   34.6026,       808,
   34.6228,       723,
    34.643,       665,
   34.6633,       657,
   34.6835,       638,
   34.7037,       635,
   34.7239,       641,
   34.7441,       674,
   34.7644,       700,
   34.7846,       705,
   34.8048,       751,
    34.825,       822,
   34.8452,       940,
   34.8655,       915,
   34.8857,       957,
   34.9059,      1039,
   34.9261,      1120,
   34.9463,      1186,
   34.9665,      1208,
   34.9868,      1211,
    35.007,      1237,
   35.0272,      1346,
   35.0474,      1334,
   35.0676,      1328,
   35.0879,      1363,
   35.1081,      1426,
   35.1283,      1359,
   35.1485,      1361,
   35.1687,      1399,
    35.189,      1416,
   35.2092,      1409,
   35.2294,      1456,
   35.2496,      1447,
   35.2698,      1536,
     35.29,      1464,
   35.3103,      1502,
   35.3305,      1393,
   35.3507,      1360,
   35.3709,      1248,
   35.3911,      1165,
   35.4114,      1091,
   35.4316,      1053,
   35.4518,       967,
    35.472,       892,
   35.4922,       985,
   35.5125,       878,
   35.5327,       874,
   35.5529,       837,
   35.5731,       911,
   35.5933,       889,
   35.6135,       923,
   35.6338,       860,
    35.654,       841,
   35.6742,       814,
   35.6944,       796,
   35.7146,       798,
   35.7349,       777,
   35.7551,       708,
   35.7753,       700,
   35.7955,       645,
   35.8157,       690,
    35.836,       697,
   35.8562,       626,
   35.8764,       641,
   35.8966,       613,
   35.9168,       599,
    35.937,       601,
   35.9573,       597,
   35.9775,       609,
   35.9977,       618,
   36.0179,       631,
   36.0381,       627,
   36.0584,       663,
   36.0786,       654,
   36.0988,       649,
    36.119,       628,
   36.1392,       642,
   36.1595,       662,
   36.1797,       647,
   36.1999,       681,
   36.2201,       668,
   36.2403,       703,
   36.2605,       705,
   36.2808,       699,
    36.301,       732,
   36.3212,       744,
   36.3414,       759,
   36.3616,       787,
   36.3819,       836,
   36.4021,       873,
   36.4223,       929,
   36.4425,       991,
   36.4627,      1002,
    36.483,      1037,
   36.5032,       996,
   36.5234,      1022,
   36.5436,       972,
   36.5638,       906,
    36.584,       823,
   36.6043,       740,
   36.6245,       793,
   36.6447,       708,
   36.6649,       700,
   36.6851,       740,
   36.7054,       726,
   36.7256,       698,
   36.7458,       726,
    36.766,       788,
   36.7862,       760,
   36.8065,       818,
   36.8267,       830,
   36.8469,       921,
   36.8671,       941,
   36.8873,       955,
   36.9075,      1033,
   36.9278,      1040,
    36.948,      1193,
   36.9682,      1337,
   36.9884,      1540,
   37.0086,      1822,
   37.0289,      2410,
   37.0491,      3514,
   37.0693,      6105,
   37.0895,      9053,
   37.1097,     11174,
     37.13,     13063,
   37.1502,     15818,
   37.1704,     20098,
   37.1906,     21796,
   37.2108,     20615,
    37.231,     16478,
   37.2513,     13638,
   37.2715,     12921,
   37.2917,     11050,
   37.3119,      7348,
   37.3321,      4483,
   37.3524,      2963,
   37.3726,      2143,
   37.3928,      1698,
    37.413,      1514,
   37.4332,      1324,
   37.4535,      1249,
   37.4737,      1135,
   37.4939,      1072,
   37.5141,       994,
   37.5343,      1003,
   37.5545,       970,
   37.5748,       871,
    37.595,       829,
   37.6152,       854,
   37.6354,       744,
   37.6556,       773,
   37.6759,       761,
   37.6961,       744,
   37.7163,       714,
   37.7365,       692,
   37.7567,       681,
    37.777,       698,
   37.7972,       696,
   37.8174,       646,
   37.8376,       641,
   37.8578,       578,
    37.878,       576,
   37.8983,       609,
   37.9185,       591,
   37.9387,       624,
   37.9589,       591,
   37.9791,       575,
   37.9994,       531,
   38.0196,       567,
   38.0398,       561,
     38.06,       534,
   38.0802,       562,
   38.1005,       541,
   38.1207,       497,
   38.1409,       548,
   38.1611,       502,
   38.1813,       474,
   38.2015,       522,
   38.2218,       506,
    38.242,       496,
   38.2622,       532,
   38.2824,       542,
   38.3026,       558,
   38.3229,       578,
   38.3431,       581,
   38.3633,       564,
   38.3835,       574,
   38.4037,       574,
    38.424,       561,
   38.4442,       564,
   38.4644,       591,
   38.4846,       533,
   38.5048,       541,
    38.525,       493,
   38.5453,       518,
   38.5655,       512,
   38.5857,       520,
   38.6059,       475,
   38.6261,       524,
   38.6464,       490,
   38.6666,       500,
   38.6868,       543,
    38.707,       548,
   38.7272,       566,
   38.7475,       617,
   38.7677,       666,
   38.7879,       720,
   38.8081,       747,
   38.8283,       734,
   38.8485,       695,
   38.8688,       644,
    38.889,       649,
   38.9092,       596,
   38.9294,       562,
   38.9496,       528,
   38.9699,       527,
   38.9901,       515,
   39.0103,       505,
   39.0305,       519,
   39.0507,       567,
    39.071,       572,
   39.0912,       591,
   39.1114,       632,
   39.1316,       586,
   39.1518,       587,
    39.172,       606,
   39.1923,       515,
   39.2125,       500,
   39.2327,       516,
   39.2529,       453,
   39.2731,       415,
   39.2934,       459,
   39.3136,       423,
   39.3338,       454,
    39.354,       403,
   39.3742,       416,
   39.3945,       378,
   39.4147,       381,
   39.4349,       397,
   39.4551,       405,
   39.4753,       385,
   39.4955,       453,
   39.5158,       399,
    39.536,       427,
   39.5562,       421,
   39.5764,       436,
   39.5966,       420,
   39.6169,       471,
   39.6371,       454,
   39.6573,       477,
   39.6775,       482,
   39.6977,       476,
    39.718,       444,
   39.7382,       447,
   39.7584,       474,
   39.7786,       433,
   39.7988,       477,
    39.819,       435,
   39.8393,       422,
   39.8595,       447,
   39.8797,       451,
   39.8999,       404,
   39.9201,       408,
   39.9404,       383,
   39.9606,       382,
   39.9808,       417,
    40.001,       378,
   40.0212,       380,
   40.0415,       363,
   40.0617,       353,
   40.0819,       376,
   40.1021,       383,
   40.1223,       346,
   40.1425,       400,
   40.1628,       390,
    40.183,       380,
   40.2032,       357,
   40.2234,       375,
   40.2436,       377,
   40.2639,       375,
   40.2841,       345,
   40.3043,       380,
   40.3245,       338,
   40.3447,       357,
    40.365,       382,
   40.3852,       349,
   40.4054,       360,
   40.4256,       397,
   40.4458,       411,
    40.466,       456,
   40.4863,       393,
   40.5065,       442,
   40.5267,       415,
   40.5469,       433,
   40.5671,       421,
   40.5874,       409,
   40.6076,       387,
   40.6278,       400,
    40.648,       365,
   40.6682,       395,
   40.6885,       394,
   40.7087,       415,
   40.7289,       381,
   40.7491,       376,
   40.7693,       363,
   40.7895,       384,
   40.8098,       405,
     40.83,       421,
   40.8502,       388,
   40.8704,       406,
   40.8906,       405,
   40.9109,       373,
   40.9311,       392,
   40.9513,       393,
   40.9715,       372,
   40.9917,       363,
    41.012,       406,
   41.0322,       362,
   41.0524,       369,
   41.0726,       372,
   41.0928,       381,
   41.1131,       377,
   41.1333,       371,
   41.1535,       339,
   41.1737,       367,
   41.1939,       377,
   41.2141,       376,
   41.2344,       360,
   41.2546,       358,
   41.2748,       364,
    41.295,       327,
   41.3152,       407,
   41.3355,       348,
   41.3557,       382,
   41.3759,       392,
   41.3961,       361,
   41.4163,       361,
   41.4366,       368,
   41.4568,       386,
    41.477,       422,
   41.4972,       425,
   41.5174,       373,
   41.5376,       414,
   41.5579,       399,
   41.5781,       415,
   41.5983,       402,
   41.6185,       392,
   41.6387,       377,
    41.659,       374,
   41.6792,       351,
   41.6994,       352,
   41.7196,       365,
   41.7398,       369,
   41.7601,       353,
   41.7803,       345,
   41.8005,       349,
   41.8207,       360,
   41.8409,       375,
   41.8611,       359,
   41.8814,       356,
   41.9016,       345,
   41.9218,       342,
    41.942,       374,
   41.9622,       376,
   41.9825,       353,
   42.0027,       345,
   42.0229,       352,
   42.0431,       360,
   42.0633,       376,
   42.0836,       389,
   42.1038,       408,
    42.124,       429,
   42.1442,       389,
   42.1644,       462,
   42.1846,       480,
   42.2049,       503,
   42.2251,       511,
   42.2453,       534,
   42.2655,       552,
   42.2857,       584,
    42.306,       564,
   42.3262,       601,
   42.3464,       591,
   42.3666,       595,
   42.3868,       575,
   42.4071,       608,
   42.4273,       530,
   42.4475,       565,
   42.4677,       520,
   42.4879,       503,
   42.5081,       467,
   42.5284,       453,
   42.5486,       433,
   42.5688,       413,
    42.589,       441,
   42.6092,       389,
   42.6295,       376,
   42.6497,       431,
   42.6699,       424,
   42.6901,       427,
   42.7103,       435,
   42.7306,       403,
   42.7508,       401,
    42.771,       455,
   42.7912,       467,
   42.8114,       471,
   42.8316,       468,
   42.8519,       448,
   42.8721,       504,
   42.8923,       492,
   42.9125,       457,
   42.9327,       475,
    42.953,       504,
   42.9732,       525,
   42.9934,       471,
   43.0136,       488,
   43.0338,       440,
   43.0541,       491,
   43.0743,       440,
   43.0945,       448,
   43.1147,       423,
   43.1349,       393,
   43.1551,       445,
   43.1754,       419,
   43.1956,       383,
   43.2158,       391,
    43.236,       384,
   43.2562,       416,
   43.2765,       341,
   43.2967,       394,
   43.3169,       360,
   43.3371,       355,
   43.3573,       357,
   43.3776,       357,
   43.3978,       364,
    43.418,       336,
   43.4382,       337,
   43.4584,       351,
   43.4786,       328,
   43.4989,       359,
   43.5191,       330,
   43.5393,       334,
   43.5595,       379,
   43.5797,       346,
      43.6,       391,
   43.6202,       379,
   43.6404,       401,
   43.6606,       410,
   43.6808,       455,
   43.7011,       415,
   43.7213,       451,
   43.7415,       410,
   43.7617,       448,
   43.7819,       395,
   43.8021,       423,
   43.8224,       423,
   43.8426,       438,
   43.8628,       418,
    43.883,       419,
   43.9032,       392,
   43.9235,       409,
   43.9437,       402,
   43.9639,       390,
   43.9841,       300,
   44.0043,       355,
   44.0246,       374,
   44.0448,       326,
    44.065,       304,
   44.0852,       375,
   44.1054,       300,
   44.1256,       363,
   44.1459,       326,
   44.1661,       343,
   44.1863,       359,
   44.2065,       361,
   44.2267,       373,
    44.247,       370,
   44.2672,       382,
   44.2874,       407,
   44.3076,       463,
   44.3278,       503,
   44.3481,       529,
   44.3683,       604,
   44.3885,       669,
   44.4087,       612,
   44.4289,       592,
   44.4491,       628,
   44.4694,       565,
   44.4896,       521,
   44.5098,       525,
     44.53,       480,
   44.5502,       439,
   44.5705,       475,
   44.5907,       421,
   44.6109,       385,
   44.6311,       361,
   44.6513,       363,
   44.6716,       341,
   44.6918,       342,
    44.712,       329,
   44.7322,       317,
   44.7524,       329,
   44.7726,       335,
   44.7929,       343,
   44.8131,       352,
   44.8333,       305,
   44.8535,       377,
   44.8737,       361,
    44.894,       377,
   44.9142,       393,
   44.9344,       434,
   44.9546,       449,
   44.9748,       528,
   44.9951,       609,
   45.0153,       679,
   45.0355,       782,
   45.0557,       743,
   45.0759,       786,
   45.0961,       690,
   45.1164,       712,
   45.1366,       616,
   45.1568,       639,
    45.177,       570,
   45.1972,       555,
   45.2175,       491,
   45.2377,       528,
   45.2579,       543,
   45.2781,       522,
   45.2983,       482,
   45.3186,       495,
   45.3388,       394,
    45.359,       418,
   45.3792,       437,
   45.3994,       391,
   45.4196,       333,
   45.4399,       330,
   45.4601,       335,
   45.4803,       317,
   45.5005,       307,
   45.5207,       313,
    45.541,       323,
   45.5612,       314,
   45.5814,       314,
   45.6016,       300,
   45.6218,       302,
   45.6421,       330,
   45.6623,       327,
   45.6825,       316,
   45.7027,       312,
   45.7229,       339,
   45.7431,       338,
   45.7634,       336,
   45.7836,       304,
   45.8038,       304,
    45.824,       340,
   45.8442,       320,
   45.8645,       354,
   45.8847,       327,
   45.9049,       350,
   45.9251,       339,
   45.9453,       286,
   45.9656,       315,
   45.9858,       308,
    46.006,       303,
   46.0262,       325,
   46.0464,       322,
   46.0666,       320,
   46.0869,       335,
   46.1071,       314,
   46.1273,       291,
   46.1475,       311,
   46.1677,       286,
    46.188,       322,
   46.2082,       322,
   46.2284,       344,
   46.2486,       313,
   46.2688,       358,
   46.2891,       383,
   46.3093,       372,
   46.3295,       356,
   46.3497,       403,
   46.3699,       375,
   46.3901,       379,
   46.4104,       332,
   46.4306,       408,
   46.4508,       411,
    46.471,       327,
   46.4912,       374,
   46.5115,       348,
   46.5317,       353,
   46.5519,       322,
   46.5721,       357,
   46.5923,       340,
   46.6126,       319,
   46.6328,       324,
    46.653,       317,
   46.6732,       311,
   46.6934,       354,
   46.7136,       349,
   46.7339,       357,
   46.7541,       361,
   46.7743,       360,
   46.7945,       388,
   46.8147,       383,
    46.835,       359,
   46.8552,       381,
   46.8754,       409,
   46.8956,       395,
   46.9158,       447,
   46.9361,       416,
   46.9563,       426,
   46.9765,       442,
   46.9967,       431,
   47.0169,       447,
   47.0371,       408,
   47.0574,       466,
   47.0776,       451,
   47.0978,       444,
    47.118,       440,
   47.1382,       509,
   47.1585,       409,
   47.1787,       474,
   47.1989,       433,
   47.2191,       458,
   47.2393,       453,
   47.2596,       475,
   47.2798,       427,
      47.3,       419,
   47.3202,       405,
   47.3404,       454,
   47.3606,       408,
   47.3809,       410,
   47.4011,       486,
   47.4213,       412,
   47.4415,       418,
   47.4617,       409,
    47.482,       409,
   47.5022,       435,
   47.5224,       467,
   47.5426,       405,
   47.5628,       435,
   47.5831,       482,
   47.6033,       451,
   47.6235,       464,
   47.6437,       475,
   47.6639,       443,
   47.6841,       448,
   47.7044,       471,
   47.7246,       453,
   47.7448,       418,
    47.765,       420,
   47.7852,       424,
   47.8055,       400,
   47.8257,       386,
   47.8459,       375,
   47.8661,       403,
   47.8863,       371,
   47.9066,       352,
   47.9268,       351,
    47.947,       336,
   47.9672,       339,
   47.9874,       369,
   48.0076,       394,
   48.0279,       398,
   48.0481,       405,
   48.0683,       382,
   48.0885,       395,
   48.1087,       464,
    48.129,       424,
   48.1492,       419,
   48.1694,       428,
   48.1896,       387,
   48.2098,       378,
   48.2301,       363,
   48.2503,       390,
   48.2705,       387,
   48.2907,       385,
   48.3109,       424,
   48.3311,       413,
   48.3514,       395,
   48.3716,       375,
   48.3918,       391,
    48.412,       408,
   48.4322,       374,
   48.4525,       385,
   48.4727,       422,
   48.4929,       341,
   48.5131,       362,
   48.5333,       343,
   48.5536,       317,
   48.5738,       338,
    48.594,       324,
   48.6142,       324,
   48.6344,       307,
   48.6546,       321,
   48.6749,       304,
   48.6951,       308,
   48.7153,       321,
   48.7355,       289,
   48.7557,       306,
    48.776,       275,
   48.7962,       309,
   48.8164,       324,
   48.8366,       294,
   48.8568,       308,
   48.8771,       310,
   48.8973,       297,
   48.9175,       290,
   48.9377,       344,
   48.9579,       304,
   48.9781,       271,
   48.9984,       305,
   49.0186,       330,
   49.0388,       307,
    49.059,       275,
   49.0792,       302,
   49.0995,       302,
   49.1197,       339,
   49.1399,       303,
   49.1601,       306,
   49.1803,       318,
   49.2006,       298,
   49.2208,       309,
    49.241,       300,
   49.2612,       293,
   49.2814,       309,
   49.3016,       314,
   49.3219,       324,
   49.3421,       312,
   49.3623,       310,
   49.3825,       329,
   49.4027,       305,
    49.423,       343,
   49.4432,       297,
   49.4634,       334,
   49.4836,       353,
   49.5038,       294,
   49.5241,       347,
   49.5443,       343,
   49.5645,       352,
   49.5847,       323,
   49.6049,       328,
   49.6251,       358,
   49.6454,       339,
   49.6656,       339,
   49.6858,       314,
    49.706,       354,
   49.7262,       376,
   49.7465,       338,
   49.7667,       315,
   49.7869,       329,
   49.8071,       340,
   49.8273,       328,
   49.8476,       359,
   49.8678,       364,
    49.888,       356,
   49.9082,       359,
   49.9284,       337,
   49.9486,       336,
   49.9689,       375,
   49.9891,       325,
   50.0093,       307,
   50.0295,       356,
   50.0497,       372,
     50.07,       380,
   50.0902,       353,
   50.1104,       346,
   50.1306,       354,
   50.1508,       337,
   50.1711,       385,
   50.1913,       344,
   50.2115,       374,
   50.2317,       354,
   50.2519,       337,
   50.2721,       363,
   50.2924,       330,
   50.3126,       361,
   50.3328,       385,
    50.353,       412,
   50.3732,       375,
   50.3935,       444,
   50.4137,       425,
   50.4339,       399,
   50.4541,       398,
   50.4743,       400,
   50.4946,       394,
   50.5148,       376,
    50.535,       349,
   50.5552,       357,
   50.5754,       359,
   50.5956,       351,
   50.6159,       347,
   50.6361,       353,
   50.6563,       378,
   50.6765,       404,
   50.6967,       392,
    50.717,       421,
   50.7372,       430,
   50.7574,       454,
   50.7776,       420,
   50.7978,       434,
   50.8181,       464,
   50.8383,       457,
   50.8585,       441,
   50.8787,       452,
   50.8989,       501,
   50.9191,       560,
   50.9394,       527,
   50.9596,       574,
   50.9798,       442,
        51,       456,
   51.0202,       463,
   51.0405,       411,
   51.0607,       473,
   51.0809,       424,
   51.1011,       455,
   51.1213,       420,
   51.1416,       398,
   51.1618,       376,
    51.182,       385,
   51.2022,       408,
   51.2224,       405,
   51.2426,       423,
   51.2629,       421,
   51.2831,       452,
   51.3033,       376,
   51.3235,       404,
   51.3437,       426,
    51.364,       429,
   51.3842,       410,
   51.4044,       365,
   51.4246,       402,
   51.4448,       401,
   51.4651,       436,
   51.4853,       430,
   51.5055,       407,
   51.5257,       372,
   51.5459,       410,
   51.5661,       397,
   51.5864,       411,
   51.6066,       422,
   51.6268,       430,
    51.647,       410,
   51.6672,       396,
   51.6875,       427,
   51.7077,       385,
   51.7279,       425,
   51.7481,       361,
   51.7683,       397,
   51.7886,       400,
   51.8088,       412,
    51.829,       400,
   51.8492,       371,
   51.8694,       440,
   51.8897,       393,
   51.9099,       389,
   51.9301,       352,
   51.9503,       427,
   51.9705,       395,
   51.9907,       395,
    52.011,       369,
   52.0312,       378,
   52.0514,       370,
   52.0716,       400,
   52.0918,       351,
   52.1121,       332,
   52.1323,       364,
   52.1525,       349,
   52.1727,       343,
   52.1929,       339,
   52.2132,       331,
   52.2334,       359,
   52.2536,       326,
   52.2738,       337,
    52.294,       333,
   52.3142,       360,
   52.3345,       333,
   52.3547,       359,
   52.3749,       295,
   52.3951,       325,
   52.4153,       288,
   52.4356,       312,
   52.4558,       320,
    52.476,       302,
   52.4962,       297,
   52.5164,       344,
   52.5367,       337,
   52.5569,       307,
   52.5771,       328,
   52.5973,       321,
   52.6175,       305,
   52.6377,       331,
    52.658,       293,
   52.6782,       299,
   52.6984,       321,
   52.7186,       365,
   52.7388,       319,
   52.7591,       349,
   52.7793,       354,
   52.7995,       398,
   52.8197,       375,
   52.8399,       424,
   52.8602,       440,
   52.8804,       415,
   52.9006,       401,
   52.9208,       389,
    52.941,       381,
   52.9612,       361,
   52.9815,       398,
   53.0017,       386,
   53.0219,       432,
   53.0421,       463,
   53.0623,       453,
   53.0826,       421,
   53.1028,       478,
    53.123,       478,
   53.1432,       530,
   53.1634,       555,
   53.1837,       617,
   53.2039,       627,
   53.2241,       686,
   53.2443,       703,
   53.2645,       789,
   53.2847,       900,
    53.305,      1062,
   53.3252,      1336,
   53.3454,      1662,
   53.3656,      2043,
   53.3858,      2746,
   53.4061,      3793,
   53.4263,      4914,
   53.4465,      5383,
   53.4667,      5100,
   53.4869,      4471,
   53.5072,      3919,
   53.5274,      3683,
   53.5476,      3688,
   53.5678,      3614,
    53.588,      3229,
   53.6082,      2696,
   53.6285,      2060,
   53.6487,      1661,
   53.6689,      1347,
   53.6891,      1143,
   53.7093,       965,
   53.7296,       814,
   53.7498,       768,
     53.77,       663,
   53.7902,       641,
   53.8104,       651,
   53.8307,       639,
   53.8509,       697,
   53.8711,       748,
   53.8913,       718,
   53.9115,       781,
   53.9317,       762,
    53.952,       735,
   53.9722,       657,
   53.9924,       616,
   54.0126,       601,
   54.0328,       567,
   54.0531,       552,
   54.0733,       474,
   54.0935,       405,
   54.1137,       426,
   54.1339,       381,
   54.1542,       348,
   54.1744,       346,
   54.1946,       339,
   54.2148,       324,
    54.235,       296,
   54.2552,       301,
   54.2755,       318,
   54.2957,       343,
   54.3159,       304,
   54.3361,       333,
   54.3563,       329,
   54.3766,       287,
   54.3968,       298,
    54.417,       267,
   54.4372,       315,
   54.4574,       265,
   54.4777,       304,
   54.4979,       312,
   54.5181,       299,
   54.5383,       310,
   54.5585,       321,
   54.5787,       322,
    54.599,       316,
   54.6192,       296,
   54.6394,       328,
   54.6596,       312,
   54.6798,       312,
   54.7001,       311,
   54.7203,       325,
   54.7405,       322,
   54.7607,       297,
   54.7809,       314,
   54.8012,       314,
   54.8214,       318,
   54.8416,       278,
   54.8618,       292,
    54.882,       278,
   54.9022,       258,
   54.9225,       249,
   54.9427,       278,
   54.9629,       271,
   54.9831,       281,
   55.0033,       273,
   55.0236,       252,
   55.0438,       291,
    55.064,       264,
   55.0842,       245,
   55.1044,       237,
   55.1247,       259,
   55.1449,       255,
   55.1651,       231,
   55.1853,       266,
   55.2055,       275,
   55.2257,       281,
    55.246,       277,
   55.2662,       255,
   55.2864,       269,
   55.3066,       259,
   55.3268,       269,
   55.3471,       279,
   55.3673,       263,
   55.3875,       277,
   55.4077,       285,
   55.4279,       283,
   55.4482,       283,
   55.4684,       282,
   55.4886,       286,
   55.5088,       351,
    55.529,       279,
   55.5492,       296,
   55.5695,       263,
   55.5897,       284,
   55.6099,       292,
   55.6301,       325,
   55.6503,       327,
   55.6706,       300,
   55.6908,       300,
    55.711,       286,
   55.7312,       286,
   55.7514,       267,
   55.7717,       291,
   55.7919,       282,
   55.8121,       276,
   55.8323,       277,
   55.8525,       292,
   55.8727,       285,
    55.893,       310,
   55.9132,       302,
   55.9334,       337,
   55.9536,       332,
   55.9738,       349,
   55.9941,       356,
   56.0143,       366,
   56.0345,       373,
   56.0547,       363,
   56.0749,       337,
   56.0952,       350,
   56.1154,       349,
   56.1356,       359,
   56.1558,       367,
    56.176,       366,
   56.1962,       432,
   56.2165,       440,
   56.2367,       501,
   56.2569,       594,
   56.2771,       613,
   56.2973,       568,
   56.3176,       526,
   56.3378,       531,
    56.358,       566,
   56.3782,       567,
   56.3984,       577,
   56.4187,       538,
   56.4389,       534,
   56.4591,       448,
   56.4793,       497,
   56.4995,       436,
   56.5197,       398,
     56.54,       399,
   56.5602,       359,
   56.5804,       391,
   56.6006,       371,
   56.6208,       393,
   56.6411,       405,
   56.6613,       372,
   56.6815,       353,
   56.7017,       412,
   56.7219,       402,
   56.7422,       392,
   56.7624,       435,
   56.7826,       468,
   56.8028,       518,
    56.823,       540,
   56.8432,       522,
   56.8635,       614,
   56.8837,       609,
   56.9039,       562,
   56.9241,       586,
   56.9443,       621,
   56.9646,       635,
   56.9848,       608,
    57.005,       622,
   57.0252,       602,
   57.0454,       627,
   57.0657,       558,
   57.0859,       519,
   57.1061,       537,
   57.1263,       492,
   57.1465,       501,
   57.1667,       471,
    57.187,       476,
   57.2072,       468,
   57.2274,       428,
   57.2476,       499,
   57.2678,       431,
   57.2881,       428,
   57.3083,       413,
   57.3285,       418,
   57.3487,       428,
   57.3689,       387,
   57.3892,       423,
   57.4094,       413,
   57.4296,       385,
   57.4498,       432,
     57.47,       397,
   57.4902,       385,
   57.5105,       379,
   57.5307,       347,
   57.5509,       352,
   57.5711,       367,
   57.5913,       374,
   57.6116,       369,
   57.6318,       372,
    57.652,       349,
   57.6722,       393,
   57.6924,       346,
   57.7127,       360,
   57.7329,       383,
   57.7531,       346,
   57.7733,       359,
   57.7935,       332,
   57.8137,       364,
    57.834,       399,
   57.8542,       343,
   57.8744,       376,
   57.8946,       367,
   57.9148,       395,
   57.9351,       378,
   57.9553,       396,
   57.9755,       390,
   57.9957,       386,
   58.0159,       425,
   58.0362,       453,
   58.0564,       409,
   58.0766,       397,
   58.0968,       367,
    58.117,       413,
   58.1372,       424,
   58.1575,       409,
   58.1777,       437,
   58.1979,       404,
   58.2181,       400,
   58.2383,       402,
   58.2586,       412,
   58.2788,       364,
    58.299,       392,
   58.3192,       407,
   58.3394,       395,
   58.3597,       382,
   58.3799,       373,
   58.4001,       372,
   58.4203,       398,
   58.4405,       371,
   58.4607,       370,
    58.481,       360,
   58.5012,       406,
   58.5214,       343,
   58.5416,       368,
   58.5618,       326,
   58.5821,       357,
   58.6023,       318,
   58.6225,       336,
   58.6427,       324,
   58.6629,       358,
   58.6832,       325,
   58.7034,       380,
   58.7236,       348,
   58.7438,       324,
    58.764,       332,
   58.7842,       327,
   58.8045,       329,
   58.8247,       312,
   58.8449,       319,
   58.8651,       309,
   58.8853,       315,
   58.9056,       299,
   58.9258,       358,
    58.946,       347,
   58.9662,       336,
   58.9864,       322,
   59.0067,       320,
   59.0269,       315,
   59.0471,       320,
   59.0673,       369,
   59.0875,       389,
   59.1077,       443,
    59.128,       429,
   59.1482,       445,
   59.1684,       433,
   59.1886,       450,
   59.2088,       435,
   59.2291,       430,
   59.2493,       436,
   59.2695,       376,
   59.2897,       450,
   59.3099,       395,
   59.3302,       376,
   59.3504,       334,
   59.3706,       344,
   59.3908,       340,
    59.411,       361,
   59.4312,       327,
   59.4515,       302,
   59.4717,       331,
   59.4919,       280,
   59.5121,       297,
   59.5323,       304,
   59.5526,       256,
   59.5728,       289,
    59.593,       281,
   59.6132,       294,
   59.6334,       287,
   59.6537,       281,
   59.6739,       270,
   59.6941,       306,
   59.7143,       264,
   59.7345,       297,
   59.7547,       314,
    59.775,       301,
   59.7952,       324,
   59.8154,       316,
   59.8356,       293,
   59.8558,       320,
   59.8761,       307,
   59.8963,       312,
   59.9165,       300,
   59.9367,       292,
   59.9569,       310,
   59.9772,       277,
   59.9974,       278,
   60.0176,       275,
   60.0378,       278,
    60.058,       300,
   60.0782,       317,
   60.0985,       277,
   60.1187,       283,
   60.1389,       261,
   60.1591,       285,
   60.1793,       305,
   60.1996,       278,
   60.2198,       283,
     60.24,       296,
   60.2602,       302,
   60.2804,       272,
   60.3007,       271,
   60.3209,       280,
   60.3411,       312,
   60.3613,       290,
   60.3815,       275,
   60.4017,       284,
    60.422,       308,
   60.4422,       262,
   60.4624,       325,
   60.4826,       306,
   60.5028,       334,
   60.5231,       301,
   60.5433,       292,
   60.5635,       270,
   60.5837,       297,
   60.6039,       314,
   60.6242,       269,
   60.6444,       278,
   60.6646,       270,
   60.6848,       254,
    60.705,       295,
   60.7252,       288,
   60.7455,       267,
   60.7657,       250,
   60.7859,       270,
   60.8061,       250,
   60.8263,       296,
   60.8466,       256,
   60.8668,       253,
    60.887,       246,
   60.9072,       245,
   60.9274,       242,
   60.9477,       251,
   60.9679,       242,
   60.9881,       259,
   61.0083,       241,
   61.0285,       239,
   61.0487,       262,
    61.069,       260,
   61.0892,       232,
   61.1094,       252,
   61.1296,       258,
   61.1498,       286,
   61.1701,       248,
   61.1903,       246,
   61.2105,       253,
   61.2307,       292,
   61.2509,       261,
   61.2712,       252,
   61.2914,       286,
   61.3116,       255,
   61.3318,       240,
    61.352,       233,
   61.3722,       237,
   61.3925,       252,
   61.4127,       223,
   61.4329,       249,
   61.4531,       262,
   61.4733,       266,
   61.4936,       255,
   61.5138,       251,
    61.534,       240,
   61.5542,       248,
   61.5744,       253,
   61.5947,       261,
   61.6149,       257,
   61.6351,       251,
   61.6553,       266,
   61.6755,       268,
   61.6957,       308,
    61.716,       313,
   61.7362,       336,
   61.7564,       336,
   61.7766,       373,
   61.7968,       414,
   61.8171,       354,
   61.8373,       346,
   61.8575,       365,
   61.8777,       350,
   61.8979,       339,
   61.9182,       324,
   61.9384,       335,
   61.9586,       328,
   61.9788,       301,
    61.999,       296,
   62.0192,       248,
   62.0395,       249,
   62.0597,       247,
   62.0799,       234,
   62.1001,       235,
   62.1203,       268,
   62.1406,       263,
   62.1608,       254,
    62.181,       256,
   62.2012,       268,
   62.2214,       271,
   62.2417,       268,
   62.2619,       238,
   62.2821,       232,
   62.3023,       240,
   62.3225,       262,
   62.3427,       259,
    62.363,       256,
   62.3832,       284,
   62.4034,       340,
   62.4236,       312,
   62.4438,       349,
   62.4641,       339,
   62.4843,       332,
   62.5045,       321,
   62.5247,       325,
   62.5449,       333,
   62.5652,       299,
   62.5854,       366,
   62.6056,       297,
   62.6258,       310,
    62.646,       319,
   62.6663,       303,
   62.6865,       276,
   62.7067,       277,
   62.7269,       258,
   62.7471,       274,
   62.7673,       272,
   62.7876,       266,
   62.8078,       257,
    62.828,       261,
   62.8482,       295,
   62.8684,       280,
   62.8887,       262,
   62.9089,       258,
   62.9291,       283,
   62.9493,       259,
   62.9695,       246,
   62.9898,       234,
     63.01,       277,
   63.0302,       234,
   63.0504,       236,
   63.0706,       241,
   63.0908,       248,
   63.1111,       244,
   63.1313,       241,
   63.1515,       240,
   63.1717,       233,
   63.1919,       242,
   63.2122,       210,
   63.2324,       230,
   63.2526,       255,
   63.2728,       236,
    63.293,       223,
   63.3133,       231,
   63.3335,       220,
   63.3537,       253,
   63.3739,       235,
   63.3941,       225,
   63.4143,       258,
   63.4346,       250,
   63.4548,       241,
    63.475,       264,
   63.4952,       280,
   63.5154,       281,
   63.5357,       315,
   63.5559,       302,
   63.5761,       346,
   63.5963,       369,
   63.6165,       352,
   63.6368,       352,
    63.657,       348,
   63.6772,       365,
   63.6974,       304,
   63.7176,       314,
   63.7378,       325,
   63.7581,       312,
   63.7783,       321,
   63.7985,       290,
   63.8187,       279,
   63.8389,       262,
   63.8592,       260,
   63.8794,       227,
   63.8996,       209,
   63.9198,       239,
     63.94,       233,
   63.9603,       224,
   63.9805,       214,
   64.0007,       217,
   64.0209,       230,
   64.0411,       225,
   64.0613,       195,
   64.0816,       222,
   64.1018,       236,
    64.122,       199,
   64.1422,       184,
   64.1624,       197,
   64.1827,       217,
   64.2029,       190,
   64.2231,       217,
   64.2433,       208,
   64.2635,       214,
   64.2838,       202,
    64.304,       202,
   64.3242,       214,
   64.3444,       245,
   64.3646,       224,
   64.3848,       222,
   64.4051,       216,
   64.4253,       200,
   64.4455,       203,
   64.4657,       215,
   64.4859,       212,
   64.5062,       200,
   64.5264,       198,
   64.5466,       198,
   64.5668,       203,
    64.587,       196,
   64.6073,       183,
   64.6275,       191,
   64.6477,       210,
   64.6679,       189,
   64.6881,       214,
   64.7083,       198,
   64.7286,       202,
   64.7488,       189,
    64.769,       190,
   64.7892,       202,
   64.8094,       204,
   64.8297,       202,
   64.8499,       195,
   64.8701,       210,
   64.8903,       211,
   64.9105,       187,
   64.9308,       219,
    64.951,       193,
   64.9712,       202,
   64.9914,       222,
   65.0116,       209,
   65.0318,       206,
   65.0521,       214,
   65.0723,       198,
   65.0925,       206,
   65.1127,       214,
   65.1329,       245,
   65.1532,       265,
   65.1734,       236,
   65.1936,       223,
   65.2138,       216,
    65.234,       238,
   65.2543,       225,
   65.2745,       241,
   65.2947,       242,
   65.3149,       248,
   65.3351,       223,
   65.3553,       232,
   65.3756,       235,
   65.3958,       220,
    65.416,       219,
   65.4362,       223,
   65.4564,       219,
   65.4767,       219,
   65.4969,       212,
   65.5171,       227,
   65.5373,       223,
   65.5575,       217,
   65.5778,       222,
    65.598,       185,
   65.6182,       232,
   65.6384,       208,
   65.6586,       190,
   65.6788,       219,
   65.6991,       197,
   65.7193,       208,
   65.7395,       202,
   65.7597,       244,
   65.7799,       214,
   65.8002,       205,
   65.8204,       252,
   65.8406,       210,
   65.8608,       205,
    65.881,       237,
   65.9013,       207,
   65.9215,       232,
   65.9417,       240,
   65.9619,       246,
   65.9821,       261,
   66.0023,       241,
   66.0226,       229,
   66.0428,       239,
    66.063,       236,
   66.0832,       203,
   66.1034,       208,
   66.1237,       242,
   66.1439,       223,
   66.1641,       238,
   66.1843,       230,
   66.2045,       241,
   66.2248,       206,
    66.245,       232,
   66.2652,       223,
   66.2854,       215,
   66.3056,       226,
   66.3258,       240,
   66.3461,       232,
   66.3663,       233,
   66.3865,       239,
   66.4067,       240,
   66.4269,       270,
   66.4472,       274,
   66.4674,       257,
   66.4876,       290,
   66.5078,       273,
    66.528,       271,
   66.5483,       278,
   66.5685,       338,
   66.5887,       366,
   66.6089,       355,
   66.6291,       422,
   66.6493,       470,
   66.6696,       506,
   66.6898,       614,
     66.71,       668,
   66.7302,       749,
   66.7504,       816,
   66.7707,       844,
   66.7909,       882,
   66.8111,       814,
   66.8313,       816,
   66.8515,       788,
   66.8718,       734,
    66.892,       723,
   66.9122,       701,
   66.9324,       634,
   66.9526,       623,
   66.9728,       648,
   66.9931,       559,
   67.0133,       502,
   67.0335,       485,
   67.0537,       425,
   67.0739,       443,
   67.0942,       401,
   67.1144,       371,
   67.1346,       359,
   67.1548,       347,
    67.175,       376,
   67.1953,       314,
   67.2155,       278,
   67.2357,       318,
   67.2559,       283,
   67.2761,       254,
   67.2963,       282,
   67.3166,       257,
   67.3368,       262,
    67.357,       244,
   67.3772,       233,
   67.3974,       205,
   67.4177,       232,
   67.4379,       214,
   67.4581,       215,
   67.4783,       203,
   67.4985,       217,
   67.5188,       205,
    67.539,       181,
   67.5592,       194,
   67.5794,       190,
   67.5996,       204,
   67.6198,       208,
   67.6401,       197,
   67.6603,       222,
   67.6805,       212,
   67.7007,       221,
   67.7209,       178,
   67.7412,       193,
   67.7614,       222,
   67.7816,       213,
   67.8018,       196,
    67.822,       219,
   67.8423,       210,
   67.8625,       211,
   67.8827,       224,
   67.9029,       222,
   67.9231,       215,
   67.9433,       226,
   67.9636,       237,
   67.9838,       245,
    68.004,       247,
   68.0242,       245,
   68.0444,       251,
   68.0647,       242,
   68.0849,       239,
   68.1051,       235,
   68.1253,       227,
   68.1455,       267,
   68.1658,       248,
    68.186,       245,
   68.2062,       263,
   68.2264,       222,
   68.2466,       231,
   68.2668,       241,
   68.2871,       205,
   68.3073,       232,
   68.3275,       250,
   68.3477,       204,
   68.3679,       233,
   68.3882,       220,
   68.4084,       227,
   68.4286,       211,
   68.4488,       206,
    68.469,       241,
   68.4893,       217,
   68.5095,       218,
   68.5297,       222,
   68.5499,       205,
   68.5701,       223,
   68.5903,       206,
   68.6106,       218,
   68.6308,       228,
    68.651,       199,
   68.6712,       223,
   68.6914,       220,
   68.7117,       233,
   68.7319,       223,
   68.7521,       224,
   68.7723,       244,
   68.7925,       234,
   68.8128,       231,
    68.833,       241,
   68.8532,       254,
   68.8734,       265,
   68.8936,       244,
   68.9138,       250,
   68.9341,       236,
   68.9543,       231,
   68.9745,       244,
   68.9947,       246,
   69.0149,       231,
   69.0352,       243,
   69.0554,       274,
   69.0756,       275,
   69.0958,       232,
    69.116,       266,
   69.1363,       256,
   69.1565,       250,
   69.1767,       242,
   69.1969,       238,
   69.2171,       245,
   69.2373,       223,
   69.2576,       249,
   69.2778,       240,
    69.298,       229,
   69.3182,       223,
   69.3384,       231,
   69.3587,       220,
   69.3789,       235,
   69.3991,       253,
   69.4193,       248,
   69.4395,       233,
   69.4598,       247,
     69.48,       203,
   69.5002,       236,
   69.5204,       219,
   69.5406,       223,
   69.5608,       244,
   69.5811,       222,
   69.6013,       242,
   69.6215,       225,
   69.6417,       256,
   69.6619,       238,
   69.6822,       201,
   69.7024,       240,
   69.7226,       212,
   69.7428,       228,
    69.763,       241,
   69.7833,       207,
   69.8035,       227,
   69.8237,       222,
   69.8439,       215,
   69.8641,       252,
   69.8843,       207,
   69.9046,       200,
   69.9248,       226,
    69.945,       229,
   69.9652,       234,
   69.9854,       218,
   70.0057,       247,
