;RAW4.00
[RawHeader]
Date=11/13/2019
EstimatedTotalTime=1740.05
FurtherDQLReading=0
HardwareIndicator=65519
MeasuredTotalTime=1740.05
MeasurementFlag=1
NumberOfMeasuredRanges=1
NumberOfRanges=1
Time=14:50:34

[VarInfo]
Type=USER
Flags=0
Value=Bruker Service

[VarInfo]
Type=SAMPLEID
Flags=0
Value=Commander Sample ID

[VarInfo]
Type=COMMENT
Flags=0
Value=

[VarInfo]
Type=UTF
Flags=0
Value=

[VarInfo]
Type=CREATOR
Flags=0
Value=BrmlToV4Converter

[VarInfo]
Type=CREATOR_VERSION
Flags=0
Value=7.3.0.0

[HardwareConfiguration]
AbsorptionFactor=9999
ActivateAbsorber=0
Alpha1=1.78897
Alpha2=1.79285
AlphaAverage=1.79026
AlphaRatio=0.5
Analyzer=0
Anode=Co
AntiScatteringSlit=9999
BeamOpticsFlags=0
Beta=1.62079
BetaRelativeIntensity=0
DeactivateAbsorber=0
DetectorSlit=9999
DivergenceSlit=1
GoniometerControl=0
GoniometerDiameter=282
GoniometerModel=256
GoniometerStage=7
Monochromator=0
NearSampleSlit=9999
PrimarySollerSlit=9999
SampleChanger=0
SecondSollerSlit=9999
SynchronousAxis=0
ThinFilmAttachment=9999
WaveUnit=A

[RangeHeader]
ActuallyUsedLambda=1.79026
AdditionalDetectorMask=257
DataRecordLength=4
DelayTime=0
DisplayPlaneNumber=0
EstimatedScanTime=1740
ExtraParametersMask=0
GeneratorCurrent=10
GeneratorVoltage=30
Increment=0.0202188
Increment3=0
NumberOfCompletedData=3216
NumberOfCounts=1
NumberOfDetectors=0
NumberOfDrives=2
NumberOfEncoderDrives=0
NumberOfMeasuredData=3216
NumberOfVaryingParameters=0
RangeStartTime=0
RotationSpeed=1
ScanMode=1
ScanType=Locked Coupled
SimulatedMeasConditions=0
SlitChangerIn=0
SmootingWidth=0
Start=5.00234
Steps=3216
SynchronousRotation=0
Time=82.5

[VarInfo]
Type=PSD_DISCRIM
Flags=0
Value=0.11;0.25

[PSD]
ActualTwoTheta=9999
FirstUsedChannel=0
FixedPSD=0
PSDOpening=5.00414
PSDType=5

[Drive]
DriveFlags=1
DriveName=2Theta
DriveNumber=2
DriveOffset=0
OffsetIndex=0
OscillationAmplitude=0
OscillationSpeed=0
StartPosition=5.00234

[Drive]
DriveFlags=1
DriveName=Theta
DriveNumber=1
DriveOffset=0
OffsetIndex=0
OscillationAmplitude=0
OscillationSpeed=0
StartPosition=2.50117

[Data]
     Angle,       PSD,
   5.00234,      3534,
   5.02256,      3395,
   5.04278,      3395,
     5.063,      3388,
   5.08322,      3415,
   5.10344,      3264,
   5.12365,      3139,
   5.14387,      3208,
   5.16409,      3195,
   5.18431,      3118,
   5.20453,      3184,
   5.22475,      3009,
   5.24497,      3067,
   5.26519,      3041,
    5.2854,      2996,
   5.30562,      3104,
   5.32584,      2909,
   5.34606,      2886,
   5.36628,      2917,
    5.3865,      2972,
   5.40672,      2818,
   5.42694,      2876,
   5.44715,      2748,
   5.46737,      2805,
   5.48759,      2769,
   5.50781,      2656,
   5.52803,      2744,
   5.54825,      2572,
   5.56847,      2657,
   5.58869,      2509,
    5.6089,      2614,
   5.62912,      2620,
   5.64934,      2566,
   5.66956,      2571,
   5.68978,      2459,
      5.71,      2511,
   5.73022,      2418,
   5.75044,      2506,
   5.77065,      2482,
   5.79087,      2420,
   5.81109,      2354,
   5.83131,      2309,
   5.85153,      2391,
   5.87175,      2286,
   5.89197,      2260,
   5.91219,      2180,
    5.9324,      2310,
   5.95262,      2179,
   5.97284,      2254,
   5.99306,      2127,
   6.01328,      2216,
    6.0335,      2266,
   6.05372,      2174,
   6.07394,      2159,
   6.09415,      2103,
   6.11437,      2110,
   6.13459,      2048,
   6.15481,      2040,
   6.17503,      2007,
   6.19525,      2099,
   6.21547,      1994,
   6.23569,      1963,
    6.2559,      1992,
   6.27612,      1943,
   6.29634,      1913,
   6.31656,      1940,
   6.33678,      1854,
     6.357,      1839,
   6.37722,      1839,
   6.39744,      1807,
   6.41765,      1747,
   6.43787,      1747,
   6.45809,      1681,
   6.47831,      1678,
   6.49853,      1694,
   6.51875,      1719,
   6.53897,      1695,
   6.55919,      1616,
    6.5794,      1702,
   6.59962,      1697,
   6.61984,      1660,
   6.64006,      1603,
   6.66028,      1595,
    6.6805,      1537,
   6.70072,      1542,
   6.72094,      1529,
   6.74116,      1601,
   6.76137,      1614,
   6.78159,      1484,
   6.80181,      1521,
   6.82203,      1494,
   6.84225,      1470,
   6.86247,      1466,
   6.88269,      1476,
   6.90291,      1458,
   6.92312,      1415,
   6.94334,      1411,
   6.96356,      1441,
   6.98378,      1425,
     7.004,      1450,
   7.02422,      1402,
   7.04444,      1481,
   7.06466,      1360,
   7.08487,      1305,
   7.10509,      1298,
   7.12531,      1413,
   7.14553,      1317,
   7.16575,      1390,
   7.18597,      1341,
   7.20619,      1281,
   7.22641,      1285,
   7.24662,      1289,
   7.26684,      1293,
   7.28706,      1222,
   7.30728,      1257,
    7.3275,      1241,
   7.34772,      1215,
   7.36794,      1190,
   7.38816,      1192,
   7.40837,      1172,
   7.42859,      1209,
   7.44881,      1182,
   7.46903,      1210,
   7.48925,      1178,
   7.50947,      1165,
   7.52969,      1149,
   7.54991,      1128,
   7.57012,      1143,
   7.59034,      1150,
   7.61056,      1072,
   7.63078,      1128,
     7.651,      1153,
   7.67122,      1137,
   7.69144,      1036,
   7.71166,      1041,
   7.73187,      1052,
   7.75209,      1049,
   7.77231,      1024,
   7.79253,       985,
   7.81275,      1026,
   7.83297,      1047,
   7.85319,      1054,
   7.87341,      1047,
   7.89362,      1006,
   7.91384,       979,
   7.93406,      1042,
   7.95428,       974,
    7.9745,       997,
   7.99472,       942,
   8.01494,       948,
   8.03516,       954,
   8.05537,       956,
   8.07559,       957,
   8.09581,       997,
   8.11603,       923,
   8.13625,       976,
   8.15647,       914,
   8.17669,       870,
   8.19691,       916,
   8.21712,       864,
   8.23734,       892,
   8.25756,       858,
   8.27778,       791,
     8.298,       863,
   8.31822,       820,
   8.33844,       833,
   8.35866,       880,
   8.37887,       894,
   8.39909,       843,
   8.41931,       871,
   8.43953,       821,
   8.45975,       823,
   8.47997,       824,
   8.50019,       811,
   8.52041,       801,
   8.54062,       788,
   8.56084,       795,
   8.58106,       726,
   8.60128,       770,
    8.6215,       816,
   8.64172,       826,
   8.66194,       803,
   8.68216,       791,
   8.70237,       826,
   8.72259,       757,
   8.74281,       778,
   8.76303,       780,
   8.78325,       786,
   8.80347,       759,
   8.82369,       787,
   8.84391,       771,
   8.86413,       757,
   8.88434,       746,
   8.90456,       725,
   8.92478,       740,
     8.945,       783,
   8.96522,       770,
   8.98544,       768,
   9.00566,       707,
   9.02588,       706,
   9.04609,       696,
   9.06631,       721,
   9.08653,       686,
   9.10675,       753,
   9.12697,       752,
   9.14719,       694,
   9.16741,       726,
   9.18763,       710,
   9.20784,       688,
   9.22806,       686,
   9.24828,       731,
    9.2685,       689,
   9.28872,       788,
   9.30894,       698,
   9.32916,       706,
   9.34938,       683,
   9.36959,       653,
   9.38981,       676,
   9.41003,       631,
   9.43025,       649,
   9.45047,       684,
   9.47069,       612,
   9.49091,       679,
   9.51113,       688,
   9.53134,       694,
   9.55156,       657,
   9.57178,       649,
     9.592,       624,
   9.61222,       636,
   9.63244,       667,
   9.65266,       687,
   9.67288,       662,
   9.69309,       718,
   9.71331,       699,
   9.73353,       661,
   9.75375,       688,
   9.77397,       627,
   9.79419,       618,
   9.81441,       666,
   9.83463,       595,
   9.85484,       636,
   9.87506,       659,
   9.89528,       664,
    9.9155,       632,
   9.93572,       647,
   9.95594,       652,
   9.97616,       675,
   9.99638,       681,
   10.0166,       650,
   10.0368,       645,
    10.057,       608,
   10.0773,       668,
   10.0975,       615,
   10.1177,       625,
   10.1379,       577,
   10.1581,       660,
   10.1783,       693,
   10.1986,       656,
   10.2188,       600,
    10.239,       633,
   10.2592,       615,
   10.2794,       624,
   10.2997,       581,
   10.3199,       609,
   10.3401,       659,
   10.3603,       641,
   10.3805,       602,
   10.4008,       619,
    10.421,       642,
   10.4412,       671,
   10.4614,       602,
   10.4816,       604,
   10.5018,       654,
   10.5221,       598,
   10.5423,       558,
   10.5625,       602,
   10.5827,       626,
   10.6029,       589,
   10.6232,       610,
   10.6434,       600,
   10.6636,       642,
   10.6838,       574,
    10.704,       606,
   10.7243,       587,
   10.7445,       620,
   10.7647,       564,
   10.7849,       579,
   10.8051,       648,
   10.8253,       599,
   10.8456,       615,
   10.8658,       614,
    10.886,       621,
   10.9062,       615,
   10.9264,       578,
   10.9467,       561,
   10.9669,       642,
   10.9871,       593,
   11.0073,       615,
   11.0275,       603,
   11.0478,       646,
    11.068,       580,
   11.0882,       628,
   11.1084,       599,
   11.1286,       601,
   11.1488,       621,
   11.1691,       604,
   11.1893,       620,
   11.2095,       580,
   11.2297,       612,
   11.2499,       624,
   11.2702,       598,
   11.2904,       577,
   11.3106,       586,
   11.3308,       631,
    11.351,       587,
   11.3713,       632,
   11.3915,       631,
   11.4117,       606,
   11.4319,       638,
   11.4521,       622,
   11.4723,       579,
   11.4926,       568,
   11.5128,       594,
    11.533,       591,
   11.5532,       647,
   11.5734,       625,
   11.5937,       629,
   11.6139,       634,
   11.6341,       631,
   11.6543,       626,
   11.6745,       628,
   11.6948,       588,
    11.715,       598,
   11.7352,       595,
   11.7554,       597,
   11.7756,       610,
   11.7958,       609,
   11.8161,       606,
   11.8363,       610,
   11.8565,       561,
   11.8767,       587,
   11.8969,       637,
   11.9172,       569,
   11.9374,       599,
   11.9576,       581,
   11.9778,       678,
    11.998,       649,
   12.0183,       626,
   12.0385,       631,
   12.0587,       625,
   12.0789,       592,
   12.0991,       574,
   12.1193,       555,
   12.1396,       641,
   12.1598,       606,
     12.18,       630,
   12.2002,       592,
   12.2204,       615,
   12.2407,       585,
   12.2609,       608,
   12.2811,       618,
   12.3013,       617,
   12.3215,       606,
   12.3418,       623,
    12.362,       659,
   12.3822,       633,
   12.4024,       690,
   12.4226,       639,
   12.4428,       669,
   12.4631,       733,
   12.4833,       635,
   12.5035,       684,
   12.5237,       665,
   12.5439,       670,
   12.5642,       611,
   12.5844,       568,
   12.6046,       561,
   12.6248,       570,
    12.645,       604,
   12.6653,       547,
   12.6855,       568,
   12.7057,       607,
   12.7259,       571,
   12.7461,       615,
   12.7663,       567,
   12.7866,       663,
   12.8068,       590,
    12.827,       600,
   12.8472,       579,
   12.8674,       586,
   12.8877,       597,
   12.9079,       553,
   12.9281,       592,
   12.9483,       573,
   12.9685,       602,
   12.9888,       586,
    13.009,       618,
   13.0292,       595,
   13.0494,       600,
   13.0696,       635,
   13.0898,       609,
   13.1101,       602,
   13.1303,       622,
   13.1505,       576,
   13.1707,       585,
   13.1909,       633,
   13.2112,       631,
   13.2314,       620,
   13.2516,       627,
   13.2718,       597,
    13.292,       687,
   13.3123,       680,
   13.3325,       641,
   13.3527,       635,
   13.3729,       666,
   13.3931,       666,
   13.4133,       689,
   13.4336,       701,
   13.4538,       710,
    13.474,       759,
   13.4942,       744,
   13.5144,       817,
   13.5347,       935,
   13.5549,       949,
   13.5751,      1177,
   13.5953,      1435,
   13.6155,      1748,
   13.6358,      2099,
    13.656,      2648,
   13.6762,      2956,
   13.6964,      3677,
   13.7166,      4414,
   13.7368,      5190,
   13.7571,      6095,
   13.7773,      6125,
   13.7975,      5052,
   13.8177,      3524,
   13.8379,      2146,
   13.8582,      1306,
   13.8784,       942,
   13.8986,       819,
   13.9188,       710,
    13.939,       708,
   13.9593,       713,
   13.9795,       679,
   13.9997,       704,
   14.0199,       663,
   14.0401,       685,
   14.0603,       637,
   14.0806,       658,
   14.1008,       649,
    14.121,       603,
   14.1412,       685,
   14.1614,       628,
   14.1817,       566,
   14.2019,       595,
   14.2221,       636,
   14.2423,       611,
   14.2625,       639,
   14.2828,       564,
    14.303,       551,
   14.3232,       629,
   14.3434,       565,
   14.3636,       565,
   14.3838,       605,
   14.4041,       627,
   14.4243,       587,
   14.4445,       605,
   14.4647,       599,
   14.4849,       625,
   14.5052,       596,
   14.5254,       584,
   14.5456,       617,
   14.5658,       530,
    14.586,       591,
   14.6063,       581,
   14.6265,       592,
   14.6467,       570,
   14.6669,       597,
   14.6871,       588,
   14.7073,       567,
   14.7276,       550,
   14.7478,       552,
    14.768,       540,
   14.7882,       561,
   14.8084,       597,
   14.8287,       548,
   14.8489,       588,
   14.8691,       557,
   14.8893,       587,
   14.9095,       533,
   14.9298,       567,
     14.95,       551,
   14.9702,       601,
   14.9904,       550,
   15.0106,       572,
   15.0308,       567,
   15.0511,       552,
   15.0713,       569,
   15.0915,       544,
   15.1117,       572,
   15.1319,       559,
   15.1522,       594,
   15.1724,       548,
   15.1926,       563,
   15.2128,       583,
    15.233,       538,
   15.2533,       619,
   15.2735,       557,
   15.2937,       499,
   15.3139,       581,
   15.3341,       560,
   15.3543,       523,
   15.3746,       573,
   15.3948,       581,
    15.415,       527,
   15.4352,       566,
   15.4554,       535,
   15.4757,       537,
   15.4959,       530,
   15.5161,       530,
   15.5363,       550,
   15.5565,       560,
   15.5768,       582,
    15.597,       572,
   15.6172,       571,
   15.6374,       560,
   15.6576,       593,
   15.6778,       565,
   15.6981,       578,
   15.7183,       567,
   15.7385,       574,
   15.7587,       578,
   15.7789,       618,
   15.7992,       597,
   15.8194,       574,
   15.8396,       601,
   15.8598,       540,
     15.88,       534,
   15.9003,       568,
   15.9205,       530,
   15.9407,       546,
   15.9609,       547,
   15.9811,       535,
   16.0013,       526,
   16.0216,       518,
   16.0418,       530,
    16.062,       545,
   16.0822,       512,
   16.1024,       550,
   16.1227,       537,
   16.1429,       536,
   16.1631,       565,
   16.1833,       521,
   16.2035,       478,
   16.2238,       532,
    16.244,       517,
   16.2642,       506,
   16.2844,       511,
   16.3046,       508,
   16.3248,       560,
   16.3451,       510,
   16.3653,       535,
   16.3855,       566,
   16.4057,       554,
   16.4259,       503,
   16.4462,       504,
   16.4664,       523,
   16.4866,       524,
   16.5068,       471,
    16.527,       518,
   16.5473,       484,
   16.5675,       523,
   16.5877,       491,
   16.6079,       494,
   16.6281,       492,
   16.6483,       494,
   16.6686,       494,
   16.6888,       472,
    16.709,       496,
   16.7292,       568,
   16.7494,       528,
   16.7697,       473,
   16.7899,       468,
   16.8101,       471,
   16.8303,       544,
   16.8505,       476,
   16.8708,       499,
    16.891,       502,
   16.9112,       521,
   16.9314,       528,
   16.9516,       500,
   16.9718,       546,
   16.9921,       570,
   17.0123,       504,
   17.0325,       524,
   17.0527,       520,
   17.0729,       489,
   17.0932,       497,
   17.1134,       502,
   17.1336,       570,
   17.1538,       491,
    17.174,       517,
   17.1943,       486,
   17.2145,       544,
   17.2347,       511,
   17.2549,       497,
   17.2751,       489,
   17.2953,       538,
   17.3156,       491,
   17.3358,       518,
    17.356,       514,
   17.3762,       510,
   17.3964,       510,
   17.4167,       472,
   17.4369,       511,
   17.4571,       544,
   17.4773,       525,
   17.4975,       497,
   17.5178,       506,
    17.538,       522,
   17.5582,       502,
   17.5784,       536,
   17.5986,       471,
   17.6188,       559,
   17.6391,       491,
   17.6593,       474,
   17.6795,       509,
   17.6997,       474,
   17.7199,       437,
   17.7402,       518,
   17.7604,       476,
   17.7806,       491,
   17.8008,       496,
    17.821,       463,
   17.8413,       509,
   17.8615,       529,
   17.8817,       523,
   17.9019,       470,
   17.9221,       505,
   17.9423,       474,
   17.9626,       521,
   17.9828,       500,
    18.003,       532,
   18.0232,       504,
   18.0434,       560,
   18.0637,       534,
   18.0839,       586,
   18.1041,       548,
   18.1243,       537,
   18.1445,       522,
   18.1648,       550,
    18.185,       509,
   18.2052,       511,
   18.2254,       469,
   18.2456,       455,
   18.2658,       460,
   18.2861,       486,
   18.3063,       457,
   18.3265,       502,
   18.3467,       460,
   18.3669,       493,
   18.3872,       436,
   18.4074,       445,
   18.4276,       496,
   18.4478,       481,
    18.468,       485,
   18.4883,       488,
   18.5085,       488,
   18.5287,       484,
   18.5489,       525,
   18.5691,       503,
   18.5893,       512,
   18.6096,       482,
   18.6298,       497,
     18.65,       519,
   18.6702,       478,
   18.6904,       443,
   18.7107,       502,
   18.7309,       458,
   18.7511,       549,
   18.7713,       514,
   18.7915,       479,
   18.8118,       495,
    18.832,       445,
   18.8522,       444,
   18.8724,       463,
   18.8926,       468,
   18.9128,       451,
   18.9331,       476,
   18.9533,       488,
   18.9735,       519,
   18.9937,       516,
   19.0139,       580,
   19.0342,       547,
   19.0544,       578,
   19.0746,       669,
   19.0948,       718,
    19.115,       677,
   19.1353,       704,
   19.1555,       722,
   19.1757,       674,
   19.1959,       560,
   19.2161,       570,
   19.2363,       535,
   19.2566,       524,
   19.2768,       507,
    19.297,       511,
   19.3172,       499,
   19.3374,       478,
   19.3577,       476,
   19.3779,       463,
   19.3981,       457,
   19.4183,       459,
   19.4385,       495,
   19.4588,       480,
    19.479,       476,
   19.4992,       444,
   19.5194,       503,
   19.5396,       419,
   19.5599,       524,
   19.5801,       497,
   19.6003,       532,
   19.6205,       535,
   19.6407,       529,
   19.6609,       511,
   19.6812,       523,
   19.7014,       543,
   19.7216,       537,
   19.7418,       509,
    19.762,       474,
   19.7823,       567,
   19.8025,       458,
   19.8227,       414,
   19.8429,       481,
   19.8631,       456,
   19.8834,       497,
   19.9036,       451,
   19.9238,       466,
    19.944,       434,
   19.9642,       473,
   19.9844,       479,
   20.0047,       468,
   20.0249,       492,
   20.0451,       454,
   20.0653,       470,
   20.0855,       468,
   20.1058,       432,
    20.126,       480,
   20.1462,       439,
   20.1664,       464,
   20.1866,       471,
   20.2069,       479,
   20.2271,       463,
   20.2473,       490,
   20.2675,       458,
   20.2877,       510,
   20.3079,       540,
   20.3282,       505,
   20.3484,       530,
   20.3686,       537,
   20.3888,       546,
    20.409,       588,
   20.4293,       638,
   20.4495,       637,
   20.4697,       593,
   20.4899,       589,
   20.5101,       535,
   20.5304,       492,
   20.5506,       478,
   20.5708,       466,
    20.591,       450,
   20.6112,       433,
   20.6314,       453,
   20.6517,       445,
   20.6719,       431,
   20.6921,       459,
   20.7123,       416,
   20.7325,       490,
   20.7528,       507,
    20.773,       464,
   20.7932,       487,
   20.8134,       513,
   20.8336,       463,
   20.8539,       468,
   20.8741,       440,
   20.8943,       463,
   20.9145,       463,
   20.9347,       452,
   20.9549,       490,
   20.9752,       454,
   20.9954,       423,
   21.0156,       507,
   21.0358,       445,
    21.056,       455,
   21.0763,       461,
   21.0965,       482,
   21.1167,       459,
   21.1369,       472,
   21.1571,       517,
   21.1774,       528,
   21.1976,       594,
   21.2178,       566,
    21.238,       553,
   21.2582,       597,
   21.2784,       577,
   21.2987,       614,
   21.3189,       607,
   21.3391,       632,
   21.3593,       605,
   21.3795,       586,
   21.3998,       579,
     21.42,       549,
   21.4402,       518,
   21.4604,       524,
   21.4806,       482,
   21.5009,       489,
   21.5211,       476,
   21.5413,       460,
   21.5615,       463,
   21.5817,       424,
   21.6019,       434,
   21.6222,       410,
   21.6424,       413,
   21.6626,       456,
   21.6828,       404,
    21.703,       440,
   21.7233,       400,
   21.7435,       448,
   21.7637,       444,
   21.7839,       464,
   21.8041,       466,
   21.8244,       497,
   21.8446,       494,
   21.8648,       541,
    21.885,       529,
   21.9052,       563,
   21.9254,       522,
   21.9457,       557,
   21.9659,       526,
   21.9861,       543,
   22.0063,       495,
   22.0265,       484,
   22.0468,       525,
    22.067,       507,
   22.0872,       572,
   22.1074,       547,
   22.1276,       571,
   22.1479,       631,
   22.1681,       656,
   22.1883,       770,
   22.2085,       790,
   22.2287,       835,
   22.2489,       766,
   22.2692,       730,
   22.2894,       670,
   22.3096,       575,
   22.3298,       589,
     22.35,       475,
   22.3703,       458,
   22.3905,       490,
   22.4107,       432,
   22.4309,       489,
   22.4511,       467,
   22.4714,       411,
   22.4916,       463,
   22.5118,       453,
    22.532,       441,
   22.5522,       406,
   22.5724,       432,
   22.5927,       438,
   22.6129,       390,
   22.6331,       406,
   22.6533,       426,
   22.6735,       405,
   22.6938,       438,
    22.714,       440,
   22.7342,       422,
   22.7544,       381,
   22.7746,       440,
   22.7949,       434,
   22.8151,       460,
   22.8353,       438,
   22.8555,       464,
   22.8757,       452,
   22.8959,       455,
   22.9162,       453,
   22.9364,       462,
   22.9566,       460,
   22.9768,       437,
    22.997,       443,
   23.0173,       431,
   23.0375,       420,
   23.0577,       513,
   23.0779,       431,
   23.0981,       451,
   23.1184,       469,
   23.1386,       429,
   23.1588,       465,
    23.179,       459,
   23.1992,       488,
   23.2194,       418,
   23.2397,       472,
   23.2599,       445,
   23.2801,       492,
   23.3003,       453,
   23.3205,       449,
   23.3408,       446,
    23.361,       402,
   23.3812,       425,
   23.4014,       478,
   23.4216,       453,
   23.4419,       470,
   23.4621,       468,
   23.4823,       489,
   23.5025,       482,
   23.5227,       486,
   23.5429,       504,
   23.5632,       555,
   23.5834,       585,
   23.6036,       600,
   23.6238,       728,
    23.644,       831,
   23.6643,       950,
   23.6845,       992,
   23.7047,      1080,
   23.7249,      1069,
   23.7451,      1056,
   23.7654,      1003,
   23.7856,       870,
   23.8058,       768,
    23.826,       685,
   23.8462,       626,
   23.8664,       545,
   23.8867,       504,
   23.9069,       514,
   23.9271,       491,
   23.9473,       475,
   23.9675,       533,
   23.9878,       481,
    24.008,       416,
   24.0282,       504,
   24.0484,       518,
   24.0686,       505,
   24.0889,       505,
   24.1091,       487,
   24.1293,       547,
   24.1495,       512,
   24.1697,       532,
   24.1899,       553,
   24.2102,       604,
   24.2304,       679,
   24.2506,       767,
   24.2708,       863,
    24.291,       991,
   24.3113,      1166,
   24.3315,      1261,
   24.3517,      1264,
   24.3719,      1207,
   24.3921,      1141,
   24.4124,      1003,
   24.4326,       903,
   24.4528,       724,
    24.473,       614,
   24.4932,       536,
   24.5134,       556,
   24.5337,       538,
   24.5539,       526,
   24.5741,       486,
   24.5943,       520,
   24.6145,       488,
   24.6348,       514,
    24.655,       480,
   24.6752,       481,
   24.6954,       440,
   24.7156,       440,
   24.7359,       459,
   24.7561,       459,
   24.7763,       451,
   24.7965,       461,
   24.8167,       454,
   24.8369,       467,
   24.8572,       448,
   24.8774,       471,
   24.8976,       445,
   24.9178,       516,
    24.938,       435,
   24.9583,       488,
   24.9785,       469,
   24.9987,       446,
   25.0189,       461,
   25.0391,       496,
   25.0594,       484,
   25.0796,       495,
   25.0998,       494,
     25.12,       482,
   25.1402,       485,
   25.1604,       458,
   25.1807,       503,
   25.2009,       471,
   25.2211,       418,
   25.2413,       511,
   25.2615,       538,
   25.2818,       489,
    25.302,       534,
   25.3222,       546,
   25.3424,       569,
   25.3626,       619,
   25.3829,       690,
   25.4031,       767,
   25.4233,       780,
   25.4435,       805,
   25.4637,       769,
   25.4839,       713,
   25.5042,       700,
   25.5244,       615,
   25.5446,       606,
   25.5648,       557,
    25.585,       558,
   25.6053,       571,
   25.6255,       468,
   25.6457,       496,
   25.6659,       488,
   25.6861,       459,
   25.7064,       483,
   25.7266,       511,
   25.7468,       531,
    25.767,       568,
   25.7872,       583,
   25.8074,       557,
   25.8277,       622,
   25.8479,       559,
   25.8681,       573,
   25.8883,       486,
   25.9085,       510,
   25.9288,       468,
    25.949,       455,
   25.9692,       446,
   25.9894,       418,
   26.0096,       416,
   26.0299,       388,
   26.0501,       451,
   26.0703,       460,
   26.0905,       430,
   26.1107,       416,
   26.1309,       429,
   26.1512,       428,
   26.1714,       396,
   26.1916,       434,
   26.2118,       420,
    26.232,       438,
   26.2523,       407,
   26.2725,       438,
   26.2927,       416,
   26.3129,       468,
   26.3331,       405,
   26.3534,       481,
   26.3736,       466,
   26.3938,       502,
    26.414,       497,
   26.4342,       461,
   26.4544,       486,
   26.4747,       475,
   26.4949,       456,
   26.5151,       456,
   26.5353,       464,
   26.5555,       453,
   26.5758,       433,
    26.596,       399,
   26.6162,       411,
   26.6364,       482,
   26.6566,       373,
   26.6769,       435,
   26.6971,       468,
   26.7173,       446,
   26.7375,       481,
   26.7577,       459,
   26.7779,       457,
   26.7982,       509,
   26.8184,       457,
   26.8386,       489,
   26.8588,       534,
    26.879,       632,
   26.8993,       574,
   26.9195,       721,
   26.9397,       721,
   26.9599,       779,
   26.9801,       841,
   27.0004,       841,
   27.0206,       800,
   27.0408,       761,
    27.061,       657,
   27.0812,       622,
   27.1014,       556,
   27.1217,       523,
   27.1419,       484,
   27.1621,       495,
   27.1823,       521,
   27.2025,       528,
   27.2228,       485,
    27.243,       548,
   27.2632,       581,
   27.2834,       581,
   27.3036,       665,
   27.3239,       741,
   27.3441,       831,
   27.3643,       911,
   27.3845,      1024,
   27.4047,      1226,
   27.4249,      1327,
   27.4452,      1481,
   27.4654,      1569,
   27.4856,      1448,
   27.5058,      1276,
    27.526,      1150,
   27.5463,       899,
   27.5665,       783,
   27.5867,       654,
   27.6069,       575,
   27.6271,       526,
   27.6474,       496,
   27.6676,       473,
   27.6878,       483,
    27.708,       441,
   27.7282,       425,
   27.7484,       415,
   27.7687,       419,
   27.7889,       399,
   27.8091,       453,
   27.8293,       387,
   27.8495,       420,
   27.8698,       384,
     27.89,       369,
   27.9102,       382,
   27.9304,       395,
   27.9506,       390,
   27.9709,       349,
   27.9911,       399,
   28.0113,       402,
   28.0315,       389,
   28.0517,       395,
   28.0719,       426,
   28.0922,       385,
   28.1124,       376,
   28.1326,       380,
   28.1528,       396,
    28.173,       396,
   28.1933,       405,
   28.2135,       401,
   28.2337,       396,
   28.2539,       393,
   28.2741,       426,
   28.2944,       429,
   28.3146,       404,
   28.3348,       395,
    28.355,       407,
   28.3752,       352,
   28.3954,       410,
   28.4157,       390,
   28.4359,       399,
   28.4561,       423,
   28.4763,       397,
   28.4965,       416,
   28.5168,       369,
    28.537,       411,
   28.5572,       386,
   28.5774,       381,
   28.5976,       353,
   28.6179,       395,
   28.6381,       412,
   28.6583,       377,
   28.6785,       392,
   28.6987,       400,
   28.7189,       378,
   28.7392,       381,
   28.7594,       410,
   28.7796,       398,
   28.7998,       444,
     28.82,       436,
   28.8403,       452,
   28.8605,       426,
   28.8807,       436,
   28.9009,       470,
   28.9211,       468,
   28.9414,       471,
   28.9616,       466,
   28.9818,       442,
    29.002,       481,
   29.0222,       450,
   29.0424,       382,
   29.0627,       420,
   29.0829,       444,
   29.1031,       392,
   29.1233,       457,
   29.1435,       422,
   29.1638,       424,
    29.184,       427,
   29.2042,       396,
   29.2244,       394,
   29.2446,       423,
   29.2649,       401,
   29.2851,       383,
   29.3053,       404,
   29.3255,       401,
   29.3457,       437,
   29.3659,       428,
   29.3862,       433,
   29.4064,       445,
   29.4266,       429,
   29.4468,       429,
    29.467,       385,
   29.4873,       436,
   29.5075,       390,
   29.5277,       357,
   29.5479,       375,
   29.5681,       351,
   29.5884,       352,
   29.6086,       407,
   29.6288,       403,
    29.649,       353,
   29.6692,       369,
   29.6894,       352,
   29.7097,       382,
   29.7299,       367,
   29.7501,       386,
   29.7703,       360,
   29.7905,       383,
   29.8108,       361,
    29.831,       366,
   29.8512,       359,
   29.8714,       343,
   29.8916,       366,
   29.9119,       398,
   29.9321,       383,
   29.9523,       350,
   29.9725,       365,
   29.9927,       384,
   30.0129,       354,
   30.0332,       356,
   30.0534,       348,
   30.0736,       381,
   30.0938,       362,
    30.114,       369,
   30.1343,       378,
   30.1545,       422,
   30.1747,       402,
   30.1949,       416,
   30.2151,       421,
   30.2354,       441,
   30.2556,       426,
   30.2758,       439,
    30.296,       405,
   30.3162,       386,
   30.3365,       386,
   30.3567,       358,
   30.3769,       369,
   30.3971,       348,
   30.4173,       374,
   30.4375,       333,
   30.4578,       349,
    30.478,       385,
   30.4982,       368,
   30.5184,       350,
   30.5386,       399,
   30.5589,       385,
   30.5791,       407,
   30.5993,       370,
   30.6195,       368,
   30.6397,       377,
     30.66,       425,
   30.6802,       434,
   30.7004,       418,
   30.7206,       402,
   30.7408,       478,
    30.761,       455,
   30.7813,       402,
   30.8015,       426,
   30.8217,       395,
   30.8419,       449,
   30.8621,       423,
   30.8824,       397,
   30.9026,       393,
   30.9228,       418,
    30.943,       426,
   30.9632,       426,
   30.9835,       397,
   31.0037,       394,
   31.0239,       421,
   31.0441,       382,
   31.0643,       407,
   31.0845,       353,
   31.1048,       394,
    31.125,       416,
   31.1452,       390,
   31.1654,       390,
   31.1856,       420,
   31.2059,       432,
   31.2261,       435,
   31.2463,       529,
   31.2665,       511,
   31.2867,       560,
    31.307,       639,
   31.3272,       738,
   31.3474,       865,
   31.3676,       895,
   31.3878,      1118,
    31.408,      1170,
   31.4283,      1488,
   31.4485,      1600,
   31.4687,      1626,
   31.4889,      1665,
   31.5091,      1581,
   31.5294,      1630,
   31.5496,      1734,
   31.5698,      1652,
     31.59,      1462,
   31.6102,      1244,
   31.6305,      1132,
   31.6507,       968,
   31.6709,       819,
   31.6911,       632,
   31.7113,       578,
   31.7315,       591,
   31.7518,       467,
    31.772,       514,
   31.7922,       518,
   31.8124,       505,
   31.8326,       445,
   31.8529,       468,
   31.8731,       501,
   31.8933,       490,
   31.9135,       510,
   31.9337,       583,
    31.954,       534,
   31.9742,       641,
   31.9944,       720,
   32.0146,       887,
   32.0348,       987,
    32.055,      1255,
   32.0753,      1420,
   32.0955,      1514,
   32.1157,      1540,
   32.1359,      1440,
   32.1561,      1321,
   32.1764,      1119,
   32.1966,       887,
   32.2168,       821,
    32.237,       669,
   32.2572,       634,
   32.2775,       535,
   32.2977,       486,
   32.3179,       493,
   32.3381,       462,
   32.3583,       409,
   32.3785,       403,
   32.3988,       422,
    32.419,       406,
   32.4392,       361,
   32.4594,       378,
   32.4796,       367,
   32.4999,       375,
   32.5201,       404,
   32.5403,       367,
   32.5605,       386,
   32.5807,       396,
    32.601,       375,
   32.6212,       358,
   32.6414,       363,
   32.6616,       384,
   32.6818,       382,
    32.702,       394,
   32.7223,       386,
   32.7425,       375,
   32.7627,       398,
   32.7829,       419,
   32.8031,       396,
   32.8234,       388,
   32.8436,       379,
   32.8638,       416,
    32.884,       377,
   32.9042,       381,
   32.9245,       393,
   32.9447,       393,
   32.9649,       421,
   32.9851,       403,
   33.0053,       397,
   33.0255,       409,
   33.0458,       378,
    33.066,       403,
   33.0862,       380,
   33.1064,       392,
   33.1266,       382,
   33.1469,       380,
   33.1671,       340,
   33.1873,       361,
   33.2075,       356,
   33.2277,       353,
    33.248,       330,
   33.2682,       364,
   33.2884,       371,
   33.3086,       376,
   33.3288,       421,
    33.349,       400,
   33.3693,       392,
   33.3895,       391,
   33.4097,       381,
   33.4299,       449,
   33.4501,       453,
   33.4704,       457,
   33.4906,       467,
   33.5108,       547,
    33.531,       666,
   33.5512,       746,
   33.5715,       893,
   33.5917,       919,
   33.6119,      1034,
   33.6321,       949,
   33.6523,       876,
   33.6725,       728,
   33.6928,       643,
    33.713,       555,
   33.7332,       496,
   33.7534,       476,
   33.7736,       459,
   33.7939,       418,
   33.8141,       419,
   33.8343,       411,
   33.8545,       419,
   33.8747,       414,
    33.895,       390,
   33.9152,       397,
   33.9354,       431,
   33.9556,       428,
   33.9758,       444,
    33.996,       470,
   34.0163,       467,
   34.0365,       534,
   34.0567,       606,
   34.0769,       698,
   34.0971,       852,
   34.1174,       888,
   34.1376,      1033,
   34.1578,       954,
    34.178,       978,
   34.1982,       894,
   34.2185,       832,
   34.2387,       683,
   34.2589,       647,
   34.2791,       524,
   34.2993,       538,
   34.3195,       478,
   34.3398,       437,
     34.36,       398,
   34.3802,       443,
   34.4004,       405,
   34.4206,       490,
   34.4409,       453,
   34.4611,       470,
   34.4813,       523,
   34.5015,       505,
   34.5217,       542,
    34.542,       524,
   34.5622,       584,
   34.5824,       528,
   34.6026,       495,
   34.6228,       505,
    34.643,       546,
   34.6633,       503,
   34.6835,       498,
   34.7037,       554,
   34.7239,       488,
   34.7441,       496,
   34.7644,       566,
   34.7846,       545,
   34.8048,       601,
    34.825,       697,
   34.8452,       710,
   34.8655,       717,
   34.8857,       750,
   34.9059,       816,
   34.9261,       831,
   34.9463,       854,
   34.9665,       913,
   34.9868,       885,
    35.007,       900,
   35.0272,       882,
   35.0474,       921,
   35.0676,       896,
   35.0879,       874,
   35.1081,       907,
   35.1283,       888,
   35.1485,       939,
   35.1687,       952,
    35.189,       972,
   35.2092,      1083,
   35.2294,      1064,
   35.2496,      1151,
   35.2698,      1258,
     35.29,      1279,
   35.3103,      1284,
   35.3305,      1309,
   35.3507,      1223,
   35.3709,      1150,
   35.3911,      1106,
   35.4114,      1025,
   35.4316,       957,
   35.4518,       872,
    35.472,       783,
   35.4922,       717,
   35.5125,       675,
   35.5327,       658,
   35.5529,       707,
   35.5731,       693,
   35.5933,       761,
   35.6135,       699,
   35.6338,       797,
    35.654,       781,
   35.6742,       737,
   35.6944,       805,
   35.7146,       763,
   35.7349,       717,
   35.7551,       675,
   35.7753,       674,
   35.7955,       666,
   35.8157,       616,
    35.836,       593,
   35.8562,       546,
   35.8764,       541,
   35.8966,       534,
   35.9168,       537,
    35.937,       547,
   35.9573,       447,
   35.9775,       558,
   35.9977,       593,
   36.0179,       656,
   36.0381,       653,
   36.0584,       615,
   36.0786,       606,
   36.0988,       634,
    36.119,       639,
   36.1392,       662,
   36.1595,       700,
   36.1797,       731,
   36.1999,       722,
   36.2201,       722,
   36.2403,       764,
   36.2605,       768,
   36.2808,       765,
    36.301,       746,
   36.3212,       794,
   36.3414,       820,
   36.3616,       808,
   36.3819,       899,
   36.4021,      1009,
   36.4223,      1051,
   36.4425,      1063,
   36.4627,      1088,
    36.483,      1209,
   36.5032,      1273,
   36.5234,      1153,
   36.5436,      1043,
   36.5638,      1036,
    36.584,       901,
   36.6043,       934,
   36.6245,       862,
   36.6447,       826,
   36.6649,       843,
   36.6851,       804,
   36.7054,       818,
   36.7256,       926,
   36.7458,       913,
    36.766,       927,
   36.7862,      1022,
   36.8065,       967,
   36.8267,      1086,
   36.8469,      1114,
   36.8671,      1150,
   36.8873,      1217,
   36.9075,      1226,
   36.9278,      1445,
    36.948,      1520,
   36.9682,      1870,
   36.9884,      2144,
   37.0086,      2656,
   37.0289,      3475,
   37.0491,      4680,
   37.0693,      6619,
   37.0895,      8883,
   37.1097,     12696,
     37.13,     17406,
   37.1502,     23055,
   37.1704,     29825,
   37.1906,     34944,
   37.2108,     37096,
    37.231,     33683,
   37.2513,     28410,
   37.2715,     24322,
   37.2917,     19964,
   37.3119,     15549,
   37.3321,     10594,
   37.3524,      6976,
   37.3726,      4742,
   37.3928,      3257,
    37.413,      2591,
   37.4332,      2064,
   37.4535,      1855,
   37.4737,      1606,
   37.4939,      1521,
   37.5141,      1322,
   37.5343,      1324,
   37.5545,      1174,
   37.5748,      1071,
    37.595,      1018,
   37.6152,       968,
   37.6354,       888,
   37.6556,       798,
   37.6759,       791,
   37.6961,       736,
   37.7163,       720,
   37.7365,       650,
   37.7567,       636,
    37.777,       625,
   37.7972,       614,
   37.8174,       596,
   37.8376,       544,
   37.8578,       556,
    37.878,       556,
   37.8983,       550,
   37.9185,       589,
   37.9387,       546,
   37.9589,       508,
   37.9791,       574,
   37.9994,       531,
   38.0196,       491,
   38.0398,       532,
     38.06,       468,
   38.0802,       469,
   38.1005,       469,
   38.1207,       461,
   38.1409,       450,
   38.1611,       437,
   38.1813,       484,
   38.2015,       442,
   38.2218,       477,
    38.242,       479,
   38.2622,       465,
   38.2824,       483,
   38.3026,       512,
   38.3229,       532,
   38.3431,       523,
   38.3633,       597,
   38.3835,       579,
   38.4037,       610,
    38.424,       616,
   38.4442,       601,
   38.4644,       583,
   38.4846,       577,
   38.5048,       538,
    38.525,       519,
   38.5453,       542,
   38.5655,       528,
   38.5857,       533,
   38.6059,       504,
   38.6261,       538,
   38.6464,       514,
   38.6666,       528,
   38.6868,       515,
    38.707,       483,
   38.7272,       485,
   38.7475,       465,
   38.7677,       489,
   38.7879,       462,
   38.8081,       488,
   38.8283,       483,
   38.8485,       494,
   38.8688,       487,
    38.889,       485,
   38.9092,       527,
   38.9294,       534,
   38.9496,       512,
   38.9699,       557,
   38.9901,       542,
   39.0103,       590,
   39.0305,       617,
   39.0507,       616,
    39.071,       710,
   39.0912,       675,
   39.1114,       703,
   39.1316,       713,
   39.1518,       704,
    39.172,       770,
   39.1923,       682,
   39.2125,       596,
   39.2327,       595,
   39.2529,       557,
   39.2731,       510,
   39.2934,       506,
   39.3136,       455,
   39.3338,       462,
    39.354,       458,
   39.3742,       431,
   39.3945,       425,
   39.4147,       429,
   39.4349,       434,
   39.4551,       483,
   39.4753,       449,
   39.4955,       435,
   39.5158,       464,
    39.536,       499,
   39.5562,       525,
   39.5764,       528,
   39.5966,       532,
   39.6169,       544,
   39.6371,       517,
   39.6573,       523,
   39.6775,       519,
   39.6977,       514,
    39.718,       537,
   39.7382,       555,
   39.7584,       572,
   39.7786,       561,
   39.7988,       559,
    39.819,       563,
   39.8393,       592,
   39.8595,       524,
   39.8797,       494,
   39.8999,       506,
   39.9201,       455,
   39.9404,       477,
   39.9606,       454,
   39.9808,       440,
    40.001,       418,
   40.0212,       393,
   40.0415,       405,
   40.0617,       408,
   40.0819,       399,
   40.1021,       379,
   40.1223,       354,
   40.1425,       410,
   40.1628,       386,
    40.183,       389,
   40.2032,       368,
   40.2234,       400,
   40.2436,       343,
   40.2639,       383,
   40.2841,       371,
   40.3043,       380,
   40.3245,       378,
   40.3447,       390,
    40.365,       420,
   40.3852,       403,
   40.4054,       396,
   40.4256,       426,
   40.4458,       404,
    40.466,       373,
   40.4863,       418,
   40.5065,       407,
   40.5267,       410,
   40.5469,       390,
   40.5671,       410,
   40.5874,       414,
   40.6076,       396,
   40.6278,       404,
    40.648,       397,
   40.6682,       408,
   40.6885,       427,
   40.7087,       368,
   40.7289,       412,
   40.7491,       392,
   40.7693,       403,
   40.7895,       387,
   40.8098,       416,
     40.83,       382,
   40.8502,       365,
   40.8704,       374,
   40.8906,       377,
   40.9109,       374,
   40.9311,       363,
   40.9513,       396,
   40.9715,       353,
   40.9917,       373,
    41.012,       399,
   41.0322,       354,
   41.0524,       399,
   41.0726,       359,
   41.0928,       337,
   41.1131,       374,
   41.1333,       380,
   41.1535,       343,
   41.1737,       361,
   41.1939,       352,
   41.2141,       345,
   41.2344,       348,
   41.2546,       316,
   41.2748,       364,
    41.295,       312,
   41.3152,       347,
   41.3355,       351,
   41.3557,       367,
   41.3759,       334,
   41.3961,       357,
   41.4163,       372,
   41.4366,       356,
   41.4568,       402,
    41.477,       350,
   41.4972,       365,
   41.5174,       375,
   41.5376,       376,
   41.5579,       393,
   41.5781,       371,
   41.5983,       353,
   41.6185,       426,
   41.6387,       392,
    41.659,       428,
   41.6792,       401,
   41.6994,       403,
   41.7196,       398,
   41.7398,       439,
   41.7601,       422,
   41.7803,       387,
   41.8005,       382,
   41.8207,       380,
   41.8409,       415,
   41.8611,       378,
   41.8814,       378,
   41.9016,       362,
   41.9218,       358,
    41.942,       378,
   41.9622,       338,
   41.9825,       369,
   42.0027,       361,
   42.0229,       366,
   42.0431,       367,
   42.0633,       359,
   42.0836,       345,
   42.1038,       365,
    42.124,       374,
   42.1442,       374,
   42.1644,       438,
   42.1846,       429,
   42.2049,       429,
   42.2251,       427,
   42.2453,       435,
   42.2655,       437,
   42.2857,       438,
    42.306,       409,
   42.3262,       410,
   42.3464,       441,
   42.3666,       386,
   42.3868,       413,
   42.4071,       417,
   42.4273,       411,
   42.4475,       390,
   42.4677,       376,
   42.4879,       375,
   42.5081,       396,
   42.5284,       366,
   42.5486,       386,
   42.5688,       367,
    42.589,       351,
   42.6092,       412,
   42.6295,       393,
   42.6497,       377,
   42.6699,       385,
   42.6901,       363,
   42.7103,       400,
   42.7306,       403,
   42.7508,       363,
    42.771,       408,
   42.7912,       446,
   42.8114,       419,
   42.8316,       431,
   42.8519,       429,
   42.8721,       407,
   42.8923,       426,
   42.9125,       411,
   42.9327,       423,
    42.953,       395,
   42.9732,       402,
   42.9934,       414,
   43.0136,       392,
   43.0338,       430,
   43.0541,       387,
   43.0743,       420,
   43.0945,       384,
   43.1147,       392,
   43.1349,       422,
   43.1551,       382,
   43.1754,       355,
   43.1956,       346,
   43.2158,       344,
    43.236,       323,
   43.2562,       335,
   43.2765,       344,
   43.2967,       321,
   43.3169,       312,
   43.3371,       375,
   43.3573,       322,
   43.3776,       304,
   43.3978,       337,
    43.418,       310,
   43.4382,       327,
   43.4584,       312,
   43.4786,       309,
   43.4989,       327,
   43.5191,       318,
   43.5393,       344,
   43.5595,       303,
   43.5797,       299,
      43.6,       279,
   43.6202,       308,
   43.6404,       282,
   43.6606,       294,
   43.6808,       301,
   43.7011,       305,
   43.7213,       293,
   43.7415,       319,
   43.7617,       343,
   43.7819,       355,
   43.8021,       326,
   43.8224,       338,
   43.8426,       331,
   43.8628,       303,
    43.883,       323,
   43.9032,       328,
   43.9235,       351,
   43.9437,       297,
   43.9639,       319,
   43.9841,       302,
   44.0043,       337,
   44.0246,       298,
   44.0448,       336,
    44.065,       341,
   44.0852,       323,
   44.1054,       334,
   44.1256,       336,
   44.1459,       311,
   44.1661,       347,
   44.1863,       346,
   44.2065,       325,
   44.2267,       387,
    44.247,       375,
   44.2672,       426,
   44.2874,       432,
   44.3076,       401,
   44.3278,       479,
   44.3481,       440,
   44.3683,       442,
   44.3885,       371,
   44.4087,       432,
   44.4289,       388,
   44.4491,       381,
   44.4694,       377,
   44.4896,       366,
   44.5098,       328,
     44.53,       355,
   44.5502,       316,
   44.5705,       302,
   44.5907,       295,
   44.6109,       292,
   44.6311,       325,
   44.6513,       337,
   44.6716,       290,
   44.6918,       287,
    44.712,       301,
   44.7322,       290,
   44.7524,       345,
   44.7726,       325,
   44.7929,       318,
   44.8131,       318,
   44.8333,       331,
   44.8535,       370,
   44.8737,       413,
    44.894,       441,
   44.9142,       447,
   44.9344,       562,
   44.9546,       559,
   44.9748,       719,
   44.9951,       789,
   45.0153,       896,
   45.0355,       812,
   45.0557,       828,
   45.0759,       802,
   45.0961,       755,
   45.1164,       783,
   45.1366,       689,
   45.1568,       606,
    45.177,       600,
   45.1972,       487,
   45.2175,       490,
   45.2377,       431,
   45.2579,       391,
   45.2781,       380,
   45.2983,       409,
   45.3186,       359,
   45.3388,       379,
    45.359,       356,
   45.3792,       301,
   45.3994,       312,
   45.4196,       325,
   45.4399,       369,
   45.4601,       331,
   45.4803,       344,
   45.5005,       317,
   45.5207,       343,
    45.541,       360,
   45.5612,       352,
   45.5814,       372,
   45.6016,       302,
   45.6218,       388,
   45.6421,       359,
   45.6623,       341,
   45.6825,       320,
   45.7027,       329,
   45.7229,       378,
   45.7431,       313,
   45.7634,       368,
   45.7836,       345,
   45.8038,       355,
    45.824,       383,
   45.8442,       339,
   45.8645,       345,
   45.8847,       313,
   45.9049,       355,
   45.9251,       310,
   45.9453,       332,
   45.9656,       305,
   45.9858,       337,
    46.006,       302,
   46.0262,       311,
   46.0464,       329,
   46.0666,       289,
   46.0869,       319,
   46.1071,       315,
   46.1273,       309,
   46.1475,       309,
   46.1677,       293,
    46.188,       286,
   46.2082,       298,
   46.2284,       325,
   46.2486,       267,
   46.2688,       328,
   46.2891,       344,
   46.3093,       337,
   46.3295,       346,
   46.3497,       328,
   46.3699,       336,
   46.3901,       356,
   46.4104,       290,
   46.4306,       348,
   46.4508,       325,
    46.471,       325,
   46.4912,       300,
   46.5115,       306,
   46.5317,       304,
   46.5519,       284,
   46.5721,       288,
   46.5923,       288,
   46.6126,       275,
   46.6328,       295,
    46.653,       295,
   46.6732,       347,
   46.6934,       296,
   46.7136,       350,
   46.7339,       300,
   46.7541,       329,
   46.7743,       324,
   46.7945,       345,
   46.8147,       302,
    46.835,       343,
   46.8552,       323,
   46.8754,       309,
   46.8956,       390,
   46.9158,       303,
   46.9361,       377,
   46.9563,       354,
   46.9765,       366,
   46.9967,       369,
   47.0169,       334,
   47.0371,       394,
   47.0574,       320,
   47.0776,       359,
   47.0978,       350,
    47.118,       360,
   47.1382,       343,
   47.1585,       345,
   47.1787,       377,
   47.1989,       367,
   47.2191,       345,
   47.2393,       328,
   47.2596,       352,
   47.2798,       341,
      47.3,       332,
   47.3202,       351,
   47.3404,       332,
   47.3606,       351,
   47.3809,       383,
   47.4011,       409,
   47.4213,       341,
   47.4415,       391,
   47.4617,       349,
    47.482,       412,
   47.5022,       441,
   47.5224,       429,
   47.5426,       438,
   47.5628,       418,
   47.5831,       448,
   47.6033,       440,
   47.6235,       476,
   47.6437,       441,
   47.6639,       462,
   47.6841,       465,
   47.7044,       451,
   47.7246,       435,
   47.7448,       445,
    47.765,       418,
   47.7852,       387,
   47.8055,       382,
   47.8257,       343,
   47.8459,       356,
   47.8661,       362,
   47.8863,       345,
   47.9066,       319,
   47.9268,       292,
    47.947,       335,
   47.9672,       339,
   47.9874,       303,
   48.0076,       307,
   48.0279,       337,
   48.0481,       354,
   48.0683,       360,
   48.0885,       386,
   48.1087,       403,
    48.129,       459,
   48.1492,       406,
   48.1694,       398,
   48.1896,       409,
   48.2098,       397,
   48.2301,       370,
   48.2503,       379,
   48.2705,       346,
   48.2907,       320,
   48.3109,       337,
   48.3311,       319,
   48.3514,       331,
   48.3716,       288,
   48.3918,       323,
    48.412,       309,
   48.4322,       338,
   48.4525,       295,
   48.4727,       308,
   48.4929,       291,
   48.5131,       281,
   48.5333,       279,
   48.5536,       262,
   48.5738,       294,
    48.594,       298,
   48.6142,       276,
   48.6344,       275,
   48.6546,       254,
   48.6749,       258,
   48.6951,       257,
   48.7153,       241,
   48.7355,       278,
   48.7557,       298,
    48.776,       285,
   48.7962,       249,
   48.8164,       289,
   48.8366,       263,
   48.8568,       225,
   48.8771,       236,
   48.8973,       245,
   48.9175,       288,
   48.9377,       228,
   48.9579,       232,
   48.9781,       255,
   48.9984,       258,
   49.0186,       278,
   49.0388,       259,
    49.059,       274,
   49.0792,       254,
   49.0995,       262,
   49.1197,       251,
   49.1399,       256,
   49.1601,       264,
   49.1803,       279,
   49.2006,       261,
   49.2208,       244,
    49.241,       276,
   49.2612,       277,
   49.2814,       283,
   49.3016,       251,
   49.3219,       238,
   49.3421,       248,
   49.3623,       280,
   49.3825,       253,
   49.4027,       250,
    49.423,       266,
   49.4432,       275,
   49.4634,       263,
   49.4836,       275,
   49.5038,       291,
   49.5241,       282,
   49.5443,       273,
   49.5645,       277,
   49.5847,       269,
   49.6049,       266,
   49.6251,       240,
   49.6454,       267,
   49.6656,       276,
   49.6858,       299,
    49.706,       285,
   49.7262,       259,
   49.7465,       254,
   49.7667,       280,
   49.7869,       308,
   49.8071,       254,
   49.8273,       283,
   49.8476,       244,
   49.8678,       252,
    49.888,       277,
   49.9082,       275,
   49.9284,       284,
   49.9486,       257,
   49.9689,       280,
   49.9891,       281,
   50.0093,       263,
   50.0295,       295,
   50.0497,       252,
     50.07,       283,
   50.0902,       252,
   50.1104,       264,
   50.1306,       306,
   50.1508,       277,
   50.1711,       275,
   50.1913,       274,
   50.2115,       286,
   50.2317,       268,
   50.2519,       274,
   50.2721,       258,
   50.2924,       261,
   50.3126,       290,
   50.3328,       288,
    50.353,       286,
   50.3732,       265,
   50.3935,       299,
   50.4137,       302,
   50.4339,       256,
   50.4541,       269,
   50.4743,       285,
   50.4946,       324,
   50.5148,       300,
    50.535,       318,
   50.5552,       303,
   50.5754,       304,
   50.5956,       310,
   50.6159,       316,
   50.6361,       328,
   50.6563,       332,
   50.6765,       336,
   50.6967,       336,
    50.717,       332,
   50.7372,       339,
   50.7574,       352,
   50.7776,       346,
   50.7978,       336,
   50.8181,       348,
   50.8383,       375,
   50.8585,       349,
   50.8787,       331,
   50.8989,       393,
   50.9191,       358,
   50.9394,       384,
   50.9596,       406,
   50.9798,       357,
        51,       373,
   51.0202,       366,
   51.0405,       381,
   51.0607,       346,
   51.0809,       376,
   51.1011,       352,
   51.1213,       354,
   51.1416,       364,
   51.1618,       333,
    51.182,       323,
   51.2022,       337,
   51.2224,       369,
   51.2426,       341,
   51.2629,       343,
   51.2831,       372,
   51.3033,       400,
   51.3235,       379,
   51.3437,       396,
    51.364,       397,
   51.3842,       384,
   51.4044,       376,
   51.4246,       338,
   51.4448,       368,
   51.4651,       398,
   51.4853,       340,
   51.5055,       341,
   51.5257,       341,
   51.5459,       335,
   51.5661,       376,
   51.5864,       337,
   51.6066,       354,
   51.6268,       372,
    51.647,       352,
   51.6672,       391,
   51.6875,       341,
   51.7077,       338,
   51.7279,       319,
   51.7481,       323,
   51.7683,       340,
   51.7886,       324,
   51.8088,       333,
    51.829,       328,
   51.8492,       308,
   51.8694,       318,
   51.8897,       323,
   51.9099,       316,
   51.9301,       329,
   51.9503,       322,
   51.9705,       309,
   51.9907,       342,
    52.011,       287,
   52.0312,       329,
   52.0514,       328,
   52.0716,       314,
   52.0918,       345,
   52.1121,       309,
   52.1323,       321,
   52.1525,       293,
   52.1727,       322,
   52.1929,       295,
   52.2132,       318,
   52.2334,       295,
   52.2536,       291,
   52.2738,       297,
    52.294,       306,
   52.3142,       295,
   52.3345,       290,
   52.3547,       285,
   52.3749,       289,
   52.3951,       309,
   52.4153,       287,
   52.4356,       275,
   52.4558,       298,
    52.476,       287,
   52.4962,       284,
   52.5164,       256,
   52.5367,       305,
   52.5569,       311,
   52.5771,       314,
   52.5973,       326,
   52.6175,       322,
   52.6377,       298,
    52.658,       310,
   52.6782,       348,
   52.6984,       324,
   52.7186,       345,
   52.7388,       397,
   52.7591,       429,
   52.7793,       418,
   52.7995,       409,
   52.8197,       399,
   52.8399,       424,
   52.8602,       424,
   52.8804,       447,
   52.9006,       470,
   52.9208,       421,
    52.941,       429,
   52.9612,       413,
   52.9815,       421,
   53.0017,       464,
   53.0219,       466,
   53.0421,       475,
   53.0623,       489,
   53.0826,       491,
   53.1028,       549,
    53.123,       538,
   53.1432,       566,
   53.1634,       663,
   53.1837,       667,
   53.2039,       761,
   53.2241,       759,
   53.2443,       840,
   53.2645,       918,
   53.2847,      1034,
    53.305,      1288,
   53.3252,      1491,
   53.3454,      1876,
   53.3656,      2384,
   53.3858,      2897,
   53.4061,      3647,
   53.4263,      4381,
   53.4465,      5518,
   53.4667,      6368,
   53.4869,      6604,
   53.5072,      6207,
   53.5274,      5636,
   53.5476,      5113,
   53.5678,      4664,
    53.588,      4764,
   53.6082,      4391,
   53.6285,      3805,
   53.6487,      3163,
   53.6689,      2531,
   53.6891,      2014,
   53.7093,      1572,
   53.7296,      1272,
   53.7498,      1150,
     53.77,      1006,
   53.7902,       864,
   53.8104,       763,
   53.8307,       713,
   53.8509,       621,
   53.8711,       550,
   53.8913,       573,
   53.9115,       540,
   53.9317,       487,
    53.952,       452,
   53.9722,       431,
   53.9924,       391,
   54.0126,       348,
   54.0328,       399,
   54.0531,       352,
   54.0733,       349,
   54.0935,       341,
   54.1137,       317,
   54.1339,       327,
   54.1542,       323,
   54.1744,       298,
   54.1946,       298,
   54.2148,       284,
    54.235,       301,
   54.2552,       284,
   54.2755,       277,
   54.2957,       298,
   54.3159,       286,
   54.3361,       276,
   54.3563,       300,
   54.3766,       282,
   54.3968,       281,
    54.417,       303,
   54.4372,       254,
   54.4574,       266,
   54.4777,       266,
   54.4979,       259,
   54.5181,       297,
   54.5383,       270,
   54.5585,       255,
   54.5787,       249,
    54.599,       262,
   54.6192,       268,
   54.6394,       283,
   54.6596,       292,
   54.6798,       248,
   54.7001,       282,
   54.7203,       268,
   54.7405,       265,
   54.7607,       265,
   54.7809,       296,
   54.8012,       263,
   54.8214,       242,
   54.8416,       260,
   54.8618,       251,
    54.882,       258,
   54.9022,       280,
   54.9225,       252,
   54.9427,       276,
   54.9629,       243,
   54.9831,       254,
   55.0033,       247,
   55.0236,       267,
   55.0438,       234,
    55.064,       241,
   55.0842,       239,
   55.1044,       247,
   55.1247,       254,
   55.1449,       257,
   55.1651,       251,
   55.1853,       251,
   55.2055,       266,
   55.2257,       272,
    55.246,       303,
   55.2662,       300,
   55.2864,       295,
   55.3066,       278,
   55.3268,       285,
   55.3471,       274,
   55.3673,       272,
   55.3875,       271,
   55.4077,       285,
   55.4279,       289,
   55.4482,       269,
   55.4684,       260,
   55.4886,       246,
   55.5088,       253,
    55.529,       249,
   55.5492,       261,
   55.5695,       268,
   55.5897,       247,
   55.6099,       244,
   55.6301,       254,
   55.6503,       263,
   55.6706,       272,
   55.6908,       267,
    55.711,       258,
   55.7312,       255,
   55.7514,       256,
   55.7717,       260,
   55.7919,       268,
   55.8121,       251,
   55.8323,       258,
   55.8525,       286,
   55.8727,       258,
    55.893,       278,
   55.9132,       267,
   55.9334,       271,
   55.9536,       276,
   55.9738,       313,
   55.9941,       271,
   56.0143,       315,
   56.0345,       295,
   56.0547,       259,
   56.0749,       270,
   56.0952,       266,
   56.1154,       293,
   56.1356,       256,
   56.1558,       313,
    56.176,       320,
   56.1962,       293,
   56.2165,       318,
   56.2367,       327,
   56.2569,       375,
   56.2771,       368,
   56.2973,       392,
   56.3176,       433,
   56.3378,       418,
    56.358,       460,
   56.3782,       436,
   56.3984,       475,
   56.4187,       454,
   56.4389,       439,
   56.4591,       395,
   56.4793,       419,
   56.4995,       411,
   56.5197,       399,
     56.54,       350,
   56.5602,       361,
   56.5804,       343,
   56.6006,       338,
   56.6208,       285,
   56.6411,       323,
   56.6613,       276,
   56.6815,       317,
   56.7017,       315,
   56.7219,       336,
   56.7422,       287,
   56.7624,       299,
   56.7826,       330,
   56.8028,       318,
    56.823,       325,
   56.8432,       351,
   56.8635,       352,
   56.8837,       353,
   56.9039,       365,
   56.9241,       374,
   56.9443,       370,
   56.9646,       393,
   56.9848,       370,
    57.005,       356,
   57.0252,       397,
   57.0454,       366,
   57.0657,       400,
   57.0859,       346,
   57.1061,       389,
   57.1263,       384,
   57.1465,       347,
   57.1667,       356,
    57.187,       310,
   57.2072,       299,
   57.2274,       320,
   57.2476,       301,
   57.2678,       303,
   57.2881,       286,
   57.3083,       293,
   57.3285,       321,
   57.3487,       267,
   57.3689,       284,
   57.3892,       310,
   57.4094,       284,
   57.4296,       295,
   57.4498,       274,
     57.47,       265,
   57.4902,       274,
   57.5105,       281,
   57.5307,       300,
   57.5509,       265,
   57.5711,       263,
   57.5913,       281,
   57.6116,       286,
   57.6318,       295,
    57.652,       313,
   57.6722,       263,
   57.6924,       291,
   57.7127,       277,
   57.7329,       295,
   57.7531,       268,
   57.7733,       311,
   57.7935,       299,
   57.8137,       296,
    57.834,       302,
   57.8542,       286,
   57.8744,       296,
   57.8946,       302,
   57.9148,       319,
   57.9351,       318,
   57.9553,       299,
   57.9755,       331,
   57.9957,       362,
   58.0159,       331,
   58.0362,       354,
   58.0564,       334,
   58.0766,       356,
   58.0968,       338,
    58.117,       372,
   58.1372,       356,
   58.1575,       357,
   58.1777,       333,
   58.1979,       357,
   58.2181,       326,
   58.2383,       308,
   58.2586,       331,
   58.2788,       340,
    58.299,       304,
   58.3192,       287,
   58.3394,       302,
   58.3597,       332,
   58.3799,       297,
   58.4001,       293,
   58.4203,       251,
   58.4405,       272,
   58.4607,       273,
    58.481,       313,
   58.5012,       259,
   58.5214,       246,
   58.5416,       236,
   58.5618,       257,
   58.5821,       259,
   58.6023,       276,
   58.6225,       257,
   58.6427,       263,
   58.6629,       269,
   58.6832,       279,
   58.7034,       280,
   58.7236,       243,
   58.7438,       262,
    58.764,       246,
   58.7842,       269,
   58.8045,       239,
   58.8247,       274,
   58.8449,       251,
   58.8651,       268,
   58.8853,       238,
   58.9056,       259,
   58.9258,       231,
    58.946,       235,
   58.9662,       263,
   58.9864,       287,
   59.0067,       261,
   59.0269,       238,
   59.0471,       239,
   59.0673,       280,
   59.0875,       240,
   59.1077,       247,
    59.128,       252,
   59.1482,       287,
   59.1684,       247,
   59.1886,       266,
   59.2088,       263,
   59.2291,       292,
   59.2493,       276,
   59.2695,       316,
   59.2897,       288,
   59.3099,       279,
   59.3302,       285,
   59.3504,       297,
   59.3706,       282,
   59.3908,       302,
    59.411,       242,
   59.4312,       278,
   59.4515,       253,
   59.4717,       278,
   59.4919,       324,
   59.5121,       255,
   59.5323,       235,
   59.5526,       237,
   59.5728,       236,
    59.593,       255,
   59.6132,       243,
   59.6334,       240,
   59.6537,       261,
   59.6739,       226,
   59.6941,       269,
   59.7143,       244,
   59.7345,       266,
   59.7547,       264,
    59.775,       305,
   59.7952,       300,
   59.8154,       262,
   59.8356,       319,
   59.8558,       289,
   59.8761,       281,
   59.8963,       297,
   59.9165,       312,
   59.9367,       285,
   59.9569,       281,
   59.9772,       299,
   59.9974,       283,
   60.0176,       255,
   60.0378,       273,
    60.058,       251,
   60.0782,       259,
   60.0985,       256,
   60.1187,       253,
   60.1389,       243,
   60.1591,       234,
   60.1793,       236,
   60.1996,       238,
   60.2198,       245,
     60.24,       269,
   60.2602,       233,
   60.2804,       237,
   60.3007,       265,
   60.3209,       250,
   60.3411,       261,
   60.3613,       265,
   60.3815,       257,
   60.4017,       239,
    60.422,       256,
   60.4422,       288,
   60.4624,       276,
   60.4826,       241,
   60.5028,       304,
   60.5231,       302,
   60.5433,       295,
   60.5635,       291,
   60.5837,       275,
   60.6039,       267,
   60.6242,       292,
   60.6444,       271,
   60.6646,       251,
   60.6848,       282,
    60.705,       272,
   60.7252,       240,
   60.7455,       251,
   60.7657,       254,
   60.7859,       237,
   60.8061,       210,
   60.8263,       233,
   60.8466,       251,
   60.8668,       217,
    60.887,       233,
   60.9072,       248,
   60.9274,       244,
   60.9477,       240,
   60.9679,       220,
   60.9881,       239,
   61.0083,       224,
   61.0285,       242,
   61.0487,       227,
    61.069,       218,
   61.0892,       235,
   61.1094,       207,
   61.1296,       241,
   61.1498,       203,
   61.1701,       247,
   61.1903,       223,
   61.2105,       211,
   61.2307,       233,
   61.2509,       247,
   61.2712,       221,
   61.2914,       265,
   61.3116,       263,
   61.3318,       230,
    61.352,       239,
   61.3722,       254,
   61.3925,       247,
   61.4127,       214,
   61.4329,       238,
   61.4531,       217,
   61.4733,       189,
   61.4936,       188,
   61.5138,       232,
    61.534,       217,
   61.5542,       208,
   61.5744,       234,
   61.5947,       219,
   61.6149,       226,
   61.6351,       220,
   61.6553,       215,
   61.6755,       211,
   61.6957,       197,
    61.716,       200,
   61.7362,       219,
   61.7564,       202,
   61.7766,       209,
   61.7968,       205,
   61.8171,       225,
   61.8373,       234,
   61.8575,       215,
   61.8777,       211,
   61.8979,       212,
   61.9182,       235,
   61.9384,       203,
   61.9586,       176,
   61.9788,       201,
    61.999,       201,
   62.0192,       194,
   62.0395,       221,
   62.0597,       205,
   62.0799,       202,
   62.1001,       221,
   62.1203,       184,
   62.1406,       196,
   62.1608,       187,
    62.181,       207,
   62.2012,       185,
   62.2214,       194,
   62.2417,       198,
   62.2619,       209,
   62.2821,       188,
   62.3023,       202,
   62.3225,       192,
   62.3427,       194,
    62.363,       219,
   62.3832,       203,
   62.4034,       205,
   62.4236,       216,
   62.4438,       224,
   62.4641,       208,
   62.4843,       213,
   62.5045,       221,
   62.5247,       235,
   62.5449,       227,
   62.5652,       229,
   62.5854,       202,
   62.6056,       215,
   62.6258,       211,
    62.646,       242,
   62.6663,       216,
   62.6865,       219,
   62.7067,       226,
   62.7269,       215,
   62.7471,       202,
   62.7673,       202,
   62.7876,       209,
   62.8078,       219,
    62.828,       204,
   62.8482,       224,
   62.8684,       203,
   62.8887,       234,
   62.9089,       185,
   62.9291,       182,
   62.9493,       205,
   62.9695,       210,
   62.9898,       219,
     63.01,       232,
   63.0302,       203,
   63.0504,       212,
   63.0706,       185,
   63.0908,       209,
   63.1111,       218,
   63.1313,       216,
   63.1515,       203,
   63.1717,       210,
   63.1919,       190,
   63.2122,       180,
   63.2324,       207,
   63.2526,       188,
   63.2728,       236,
    63.293,       193,
   63.3133,       215,
   63.3335,       235,
   63.3537,       235,
   63.3739,       212,
   63.3941,       228,
   63.4143,       224,
   63.4346,       235,
   63.4548,       259,
    63.475,       262,
   63.4952,       242,
   63.5154,       303,
   63.5357,       298,
   63.5559,       376,
   63.5761,       344,
   63.5963,       386,
   63.6165,       398,
   63.6368,       388,
    63.657,       400,
   63.6772,       337,
   63.6974,       332,
   63.7176,       358,
   63.7378,       330,
   63.7581,       336,
   63.7783,       350,
   63.7985,       301,
   63.8187,       311,
   63.8389,       254,
   63.8592,       243,
   63.8794,       218,
   63.8996,       234,
   63.9198,       235,
     63.94,       211,
   63.9603,       204,
   63.9805,       202,
   64.0007,       206,
   64.0209,       225,
   64.0411,       224,
   64.0613,       196,
   64.0816,       201,
   64.1018,       202,
    64.122,       183,
   64.1422,       192,
   64.1624,       195,
   64.1827,       189,
   64.2029,       187,
   64.2231,       211,
   64.2433,       204,
   64.2635,       191,
   64.2838,       195,
    64.304,       176,
   64.3242,       195,
   64.3444,       219,
   64.3646,       225,
   64.3848,       198,
   64.4051,       187,
   64.4253,       208,
   64.4455,       192,
   64.4657,       208,
   64.4859,       208,
   64.5062,       175,
   64.5264,       186,
   64.5466,       191,
   64.5668,       181,
    64.587,       159,
   64.6073,       175,
   64.6275,       199,
   64.6477,       187,
   64.6679,       184,
   64.6881,       175,
   64.7083,       202,
   64.7286,       193,
   64.7488,       209,
    64.769,       195,
   64.7892,       196,
   64.8094,       203,
   64.8297,       210,
   64.8499,       216,
   64.8701,       181,
   64.8903,       193,
   64.9105,       187,
   64.9308,       211,
    64.951,       179,
   64.9712,       184,
   64.9914,       179,
   65.0116,       204,
   65.0318,       180,
   65.0521,       216,
   65.0723,       210,
   65.0925,       209,
   65.1127,       204,
   65.1329,       257,
   65.1532,       235,
   65.1734,       235,
   65.1936,       249,
   65.2138,       245,
    65.234,       262,
   65.2543,       239,
   65.2745,       239,
   65.2947,       216,
   65.3149,       207,
   65.3351,       220,
   65.3553,       230,
   65.3756,       224,
   65.3958,       237,
    65.416,       223,
   65.4362,       228,
   65.4564,       223,
   65.4767,       233,
   65.4969,       217,
   65.5171,       252,
   65.5373,       225,
   65.5575,       246,
   65.5778,       237,
    65.598,       237,
   65.6182,       220,
   65.6384,       229,
   65.6586,       234,
   65.6788,       217,
   65.6991,       207,
   65.7193,       198,
   65.7395,       193,
   65.7597,       188,
   65.7799,       209,
   65.8002,       183,
   65.8204,       192,
   65.8406,       188,
   65.8608,       200,
    65.881,       204,
   65.9013,       227,
   65.9215,       206,
   65.9417,       223,
   65.9619,       200,
   65.9821,       191,
   66.0023,       212,
   66.0226,       210,
   66.0428,       193,
    66.063,       219,
   66.0832,       242,
   66.1034,       217,
   66.1237,       199,
   66.1439,       209,
   66.1641,       237,
   66.1843,       215,
   66.2045,       198,
   66.2248,       223,
    66.245,       217,
   66.2652,       205,
   66.2854,       234,
   66.3056,       230,
   66.3258,       241,
   66.3461,       248,
   66.3663,       239,
   66.3865,       268,
   66.4067,       255,
   66.4269,       222,
   66.4472,       272,
   66.4674,       275,
   66.4876,       268,
   66.5078,       287,
    66.528,       296,
   66.5483,       322,
   66.5685,       322,
   66.5887,       350,
   66.6089,       410,
   66.6291,       439,
   66.6493,       521,
   66.6696,       607,
   66.6898,       716,
     66.71,       790,
   66.7302,       931,
   66.7504,      1092,
   66.7707,      1250,
   66.7909,      1243,
   66.8111,      1281,
   66.8313,      1232,
   66.8515,      1137,
   66.8718,      1096,
    66.892,      1016,
   66.9122,      1053,
   66.9324,      1002,
   66.9526,       912,
   66.9728,       869,
   66.9931,       785,
   67.0133,       724,
   67.0335,       663,
   67.0537,       555,
   67.0739,       528,
   67.0942,       495,
   67.1144,       400,
   67.1346,       391,
   67.1548,       418,
    67.175,       366,
   67.1953,       364,
   67.2155,       342,
   67.2357,       330,
   67.2559,       307,
   67.2761,       291,
   67.2963,       301,
   67.3166,       282,
   67.3368,       251,
    67.357,       248,
   67.3772,       246,
   67.3974,       253,
   67.4177,       262,
   67.4379,       224,
   67.4581,       208,
   67.4783,       231,
   67.4985,       193,
   67.5188,       202,
    67.539,       196,
   67.5592,       191,
   67.5794,       188,
   67.5996,       208,
   67.6198,       188,
   67.6401,       187,
   67.6603,       172,
   67.6805,       181,
   67.7007,       191,
   67.7209,       176,
   67.7412,       209,
   67.7614,       196,
   67.7816,       171,
   67.8018,       204,
    67.822,       178,
   67.8423,       208,
   67.8625,       206,
   67.8827,       203,
   67.9029,       198,
   67.9231,       187,
   67.9433,       207,
   67.9636,       207,
   67.9838,       180,
    68.004,       169,
   68.0242,       203,
   68.0444,       186,
   68.0647,       228,
   68.0849,       211,
   68.1051,       199,
   68.1253,       211,
   68.1455,       206,
   68.1658,       211,
    68.186,       213,
   68.2062,       197,
   68.2264,       218,
   68.2466,       218,
   68.2668,       167,
   68.2871,       205,
   68.3073,       203,
   68.3275,       208,
   68.3477,       191,
   68.3679,       217,
   68.3882,       184,
   68.4084,       172,
   68.4286,       206,
   68.4488,       184,
    68.469,       200,
   68.4893,       193,
   68.5095,       188,
   68.5297,       190,
   68.5499,       175,
   68.5701,       202,
   68.5903,       177,
   68.6106,       180,
   68.6308,       190,
    68.651,       199,
   68.6712,       192,
   68.6914,       202,
   68.7117,       202,
   68.7319,       197,
   68.7521,       202,
   68.7723,       225,
   68.7925,       212,
   68.8128,       228,
    68.833,       214,
   68.8532,       211,
   68.8734,       198,
   68.8936,       229,
   68.9138,       202,
   68.9341,       194,
   68.9543,       203,
   68.9745,       202,
   68.9947,       217,
   69.0149,       209,
   69.0352,       215,
   69.0554,       211,
   69.0756,       197,
   69.0958,       220,
    69.116,       214,
   69.1363,       215,
   69.1565,       207,
   69.1767,       230,
   69.1969,       216,
   69.2171,       192,
   69.2373,       209,
   69.2576,       203,
   69.2778,       184,
    69.298,       220,
   69.3182,       209,
   69.3384,       206,
   69.3587,       209,
   69.3789,       221,
   69.3991,       171,
   69.4193,       200,
   69.4395,       205,
   69.4598,       174,
     69.48,       187,
   69.5002,       162,
   69.5204,       175,
   69.5406,       174,
   69.5608,       196,
   69.5811,       188,
   69.6013,       176,
   69.6215,       203,
   69.6417,       186,
   69.6619,       189,
   69.6822,       183,
   69.7024,       175,
   69.7226,       178,
   69.7428,       192,
    69.763,       183,
   69.7833,       182,
   69.8035,       191,
   69.8237,       153,
   69.8439,       174,
   69.8641,       187,
   69.8843,       219,
   69.9046,       189,
   69.9248,       173,
    69.945,       201,
   69.9652,       158,
   69.9854,       201,
   70.0057,       170,
