;RAW4.00
[RawHeader]
Date=11/13/2019
EstimatedTotalTime=1740.47
FurtherDQLReading=0
HardwareIndicator=65519
MeasuredTotalTime=1740.47
MeasurementFlag=1
NumberOfMeasuredRanges=1
NumberOfRanges=1
Time=14:10:16

[VarInfo]
Type=USER
Flags=0
Value=Bruker Service

[VarInfo]
Type=SAMPLEID
Flags=0
Value=Commander Sample ID

[VarInfo]
Type=COMMENT
Flags=0
Value=

[VarInfo]
Type=UTF
Flags=0
Value=

[VarInfo]
Type=CREATOR
Flags=0
Value=BrmlToV4Converter

[VarInfo]
Type=CREATOR_VERSION
Flags=0
Value=7.3.0.0

[HardwareConfiguration]
AbsorptionFactor=9999
ActivateAbsorber=0
Alpha1=1.78897
Alpha2=1.79285
AlphaAverage=1.79026
AlphaRatio=0.5
Analyzer=0
Anode=Co
AntiScatteringSlit=9999
BeamOpticsFlags=0
Beta=1.62079
BetaRelativeIntensity=0
DeactivateAbsorber=0
DetectorSlit=9999
DivergenceSlit=1
GoniometerControl=0
GoniometerDiameter=282
GoniometerModel=256
GoniometerStage=7
Monochromator=0
NearSampleSlit=9999
PrimarySollerSlit=9999
SampleChanger=0
SecondSollerSlit=9999
SynchronousAxis=0
ThinFilmAttachment=9999
WaveUnit=A

[RangeHeader]
ActuallyUsedLambda=1.79026
AdditionalDetectorMask=257
DataRecordLength=4
DelayTime=0
DisplayPlaneNumber=0
EstimatedScanTime=1740
ExtraParametersMask=0
GeneratorCurrent=10
GeneratorVoltage=30
Increment=0.0202188
Increment3=0
NumberOfCompletedData=3216
NumberOfCounts=1
NumberOfDetectors=0
NumberOfDrives=2
NumberOfEncoderDrives=0
NumberOfMeasuredData=3216
NumberOfVaryingParameters=0
RangeStartTime=0
RotationSpeed=1
ScanMode=1
ScanType=Locked Coupled
SimulatedMeasConditions=0
SlitChangerIn=0
SmootingWidth=0
Start=5.00234
Steps=3216
SynchronousRotation=0
Time=82.5

[VarInfo]
Type=PSD_DISCRIM
Flags=0
Value=0.11;0.25

[PSD]
ActualTwoTheta=9999
FirstUsedChannel=0
FixedPSD=0
PSDOpening=5.00414
PSDType=5

[Drive]
DriveFlags=1
DriveName=2Theta
DriveNumber=2
DriveOffset=0
OffsetIndex=0
OscillationAmplitude=0
OscillationSpeed=0
StartPosition=5.00234

[Drive]
DriveFlags=1
DriveName=Theta
DriveNumber=1
DriveOffset=0
OffsetIndex=0
OscillationAmplitude=0
OscillationSpeed=0
StartPosition=2.50117

[Data]
     Angle,       PSD,
   5.00234,      4030,
   5.02256,      3887,
   5.04278,      4000,
     5.063,      3949,
   5.08322,      3772,
   5.10344,      3710,
   5.12365,      3634,
   5.14387,      3807,
   5.16409,      3728,
   5.18431,      3691,
   5.20453,      3561,
   5.22475,      3616,
   5.24497,      3496,
   5.26519,      3437,
    5.2854,      3426,
   5.30562,      3483,
   5.32584,      3470,
   5.34606,      3459,
   5.36628,      3452,
    5.3865,      3289,
   5.40672,      3393,
   5.42694,      3246,
   5.44715,      3344,
   5.46737,      3137,
   5.48759,      3201,
   5.50781,      3121,
   5.52803,      3277,
   5.54825,      3065,
   5.56847,      3099,
   5.58869,      3164,
    5.6089,      3063,
   5.62912,      3156,
   5.64934,      3029,
   5.66956,      2988,
   5.68978,      2966,
      5.71,      2997,
   5.73022,      2922,
   5.75044,      2884,
   5.77065,      2813,
   5.79087,      2930,
   5.81109,      2882,
   5.83131,      2757,
   5.85153,      2731,
   5.87175,      2859,
   5.89197,      2715,
   5.91219,      2641,
    5.9324,      2768,
   5.95262,      2746,
   5.97284,      2579,
   5.99306,      2747,
   6.01328,      2524,
    6.0335,      2583,
   6.05372,      2550,
   6.07394,      2519,
   6.09415,      2476,
   6.11437,      2475,
   6.13459,      2408,
   6.15481,      2426,
   6.17503,      2425,
   6.19525,      2440,
   6.21547,      2377,
   6.23569,      2356,
    6.2559,      2271,
   6.27612,      2265,
   6.29634,      2277,
   6.31656,      2365,
   6.33678,      2249,
     6.357,      2270,
   6.37722,      2237,
   6.39744,      2127,
   6.41765,      2143,
   6.43787,      2123,
   6.45809,      2156,
   6.47831,      2233,
   6.49853,      2081,
   6.51875,      2097,
   6.53897,      2084,
   6.55919,      2168,
    6.5794,      2048,
   6.59962,      2056,
   6.61984,      2029,
   6.64006,      1922,
   6.66028,      1981,
    6.6805,      2025,
   6.70072,      1891,
   6.72094,      2023,
   6.74116,      1928,
   6.76137,      1874,
   6.78159,      1911,
   6.80181,      1933,
   6.82203,      1918,
   6.84225,      1896,
   6.86247,      1942,
   6.88269,      1792,
   6.90291,      1904,
   6.92312,      1818,
   6.94334,      1855,
   6.96356,      1787,
   6.98378,      1745,
     7.004,      1790,
   7.02422,      1694,
   7.04444,      1696,
   7.06466,      1736,
   7.08487,      1648,
   7.10509,      1653,
   7.12531,      1693,
   7.14553,      1748,
   7.16575,      1698,
   7.18597,      1674,
   7.20619,      1646,
   7.22641,      1670,
   7.24662,      1693,
   7.26684,      1624,
   7.28706,      1650,
   7.30728,      1677,
    7.3275,      1567,
   7.34772,      1542,
   7.36794,      1555,
   7.38816,      1571,
   7.40837,      1447,
   7.42859,      1503,
   7.44881,      1462,
   7.46903,      1567,
   7.48925,      1508,
   7.50947,      1524,
   7.52969,      1438,
   7.54991,      1476,
   7.57012,      1481,
   7.59034,      1415,
   7.61056,      1571,
   7.63078,      1482,
     7.651,      1429,
   7.67122,      1411,
   7.69144,      1385,
   7.71166,      1380,
   7.73187,      1527,
   7.75209,      1385,
   7.77231,      1387,
   7.79253,      1363,
   7.81275,      1347,
   7.83297,      1361,
   7.85319,      1298,
   7.87341,      1309,
   7.89362,      1333,
   7.91384,      1302,
   7.93406,      1259,
   7.95428,      1291,
    7.9745,      1249,
   7.99472,      1266,
   8.01494,      1239,
   8.03516,      1291,
   8.05537,      1253,
   8.07559,      1255,
   8.09581,      1167,
   8.11603,      1256,
   8.13625,      1235,
   8.15647,      1211,
   8.17669,      1178,
   8.19691,      1216,
   8.21712,      1184,
   8.23734,      1219,
   8.25756,      1205,
   8.27778,      1122,
     8.298,      1208,
   8.31822,      1197,
   8.33844,      1156,
   8.35866,      1183,
   8.37887,      1071,
   8.39909,      1190,
   8.41931,      1216,
   8.43953,      1056,
   8.45975,      1122,
   8.47997,      1152,
   8.50019,      1045,
   8.52041,      1085,
   8.54062,      1168,
   8.56084,      1064,
   8.58106,      1136,
   8.60128,      1050,
    8.6215,      1112,
   8.64172,      1083,
   8.66194,      1122,
   8.68216,      1073,
   8.70237,      1047,
   8.72259,      1094,
   8.74281,      1056,
   8.76303,      1026,
   8.78325,      1111,
   8.80347,      1031,
   8.82369,      1032,
   8.84391,      1078,
   8.86413,      1055,
   8.88434,      1055,
   8.90456,      1079,
   8.92478,      1111,
     8.945,      1089,
   8.96522,      1061,
   8.98544,      1044,
   9.00566,      1007,
   9.02588,      1046,
   9.04609,      1028,
   9.06631,       995,
   9.08653,       989,
   9.10675,       989,
   9.12697,      1027,
   9.14719,      1007,
   9.16741,      1028,
   9.18763,      1028,
   9.20784,       953,
   9.22806,       992,
   9.24828,      1004,
    9.2685,      1070,
   9.28872,       994,
   9.30894,       968,
   9.32916,       996,
   9.34938,       984,
   9.36959,       985,
   9.38981,      1013,
   9.41003,       961,
   9.43025,       965,
   9.45047,       960,
   9.47069,      1031,
   9.49091,      1010,
   9.51113,       971,
   9.53134,       985,
   9.55156,       977,
   9.57178,       991,
     9.592,       972,
   9.61222,      1015,
   9.63244,       882,
   9.65266,       977,
   9.67288,       962,
   9.69309,      1027,
   9.71331,       925,
   9.73353,       995,
   9.75375,       927,
   9.77397,       938,
   9.79419,       917,
   9.81441,       912,
   9.83463,       906,
   9.85484,       907,
   9.87506,       968,
   9.89528,       856,
    9.9155,       856,
   9.93572,       913,
   9.95594,       846,
   9.97616,       872,
   9.99638,       901,
   10.0166,       840,
   10.0368,       848,
    10.057,       836,
   10.0773,       871,
   10.0975,       870,
   10.1177,       856,
   10.1379,       855,
   10.1581,       843,
   10.1783,       875,
   10.1986,       793,
   10.2188,       852,
    10.239,       818,
   10.2592,       786,
   10.2794,       860,
   10.2997,       739,
   10.3199,       829,
   10.3401,       830,
   10.3603,       805,
   10.3805,       801,
   10.4008,       803,
    10.421,       806,
   10.4412,       759,
   10.4614,       801,
   10.4816,       815,
   10.5018,       776,
   10.5221,       771,
   10.5423,       794,
   10.5625,       837,
   10.5827,       768,
   10.6029,       840,
   10.6232,       781,
   10.6434,       786,
   10.6636,       727,
   10.6838,       785,
    10.704,       726,
   10.7243,       761,
   10.7445,       781,
   10.7647,       781,
   10.7849,       799,
   10.8051,       709,
   10.8253,       784,
   10.8456,       748,
   10.8658,       823,
    10.886,       776,
   10.9062,       769,
   10.9264,       757,
   10.9467,       798,
   10.9669,       717,
   10.9871,       753,
   11.0073,       779,
   11.0275,       714,
   11.0478,       750,
    11.068,       754,
   11.0882,       732,
   11.1084,       722,
   11.1286,       772,
   11.1488,       724,
   11.1691,       699,
   11.1893,       721,
   11.2095,       783,
   11.2297,       786,
   11.2499,       768,
   11.2702,       722,
   11.2904,       707,
   11.3106,       695,
   11.3308,       728,
    11.351,       720,
   11.3713,       706,
   11.3915,       739,
   11.4117,       718,
   11.4319,       716,
   11.4521,       726,
   11.4723,       673,
   11.4926,       721,
   11.5128,       702,
    11.533,       697,
   11.5532,       732,
   11.5734,       781,
   11.5937,       715,
   11.6139,       680,
   11.6341,       706,
   11.6543,       691,
   11.6745,       738,
   11.6948,       696,
    11.715,       694,
   11.7352,       707,
   11.7554,       731,
   11.7756,       718,
   11.7958,       703,
   11.8161,       664,
   11.8363,       747,
   11.8565,       691,
   11.8767,       694,
   11.8969,       679,
   11.9172,       738,
   11.9374,       686,
   11.9576,       692,
   11.9778,       705,
    11.998,       723,
   12.0183,       707,
   12.0385,       716,
   12.0587,       749,
   12.0789,       715,
   12.0991,       754,
   12.1193,       745,
   12.1396,       695,
   12.1598,       776,
     12.18,       824,
   12.2002,       808,
   12.2204,       856,
   12.2407,       984,
   12.2609,      1096,
   12.2811,      1236,
   12.3013,      1523,
   12.3215,      1813,
   12.3418,      2274,
    12.362,      2307,
   12.3822,      2119,
   12.4024,      1612,
   12.4226,      1169,
   12.4428,       960,
   12.4631,       817,
   12.4833,       805,
   12.5035,       789,
   12.5237,       812,
   12.5439,       803,
   12.5642,       778,
   12.5844,       757,
   12.6046,       774,
   12.6248,       748,
    12.645,       691,
   12.6653,       684,
   12.6855,       735,
   12.7057,       649,
   12.7259,       684,
   12.7461,       712,
   12.7663,       663,
   12.7866,       736,
   12.8068,       722,
    12.827,       775,
   12.8472,       670,
   12.8674,       722,
   12.8877,       718,
   12.9079,       765,
   12.9281,       698,
   12.9483,       703,
   12.9685,       741,
   12.9888,       812,
    13.009,       773,
   13.0292,       822,
   13.0494,       907,
   13.0696,       899,
   13.0898,       942,
   13.1101,      1020,
   13.1303,      1083,
   13.1505,      1180,
   13.1707,      1213,
   13.1909,      1295,
   13.2112,      1420,
   13.2314,      1465,
   13.2516,      1541,
   13.2718,      1647,
    13.292,      1712,
   13.3123,      2026,
   13.3325,      2091,
   13.3527,      2276,
   13.3729,      2411,
   13.3931,      2587,
   13.4133,      2926,
   13.4336,      3546,
   13.4538,      4514,
    13.474,      5643,
   13.4942,      7719,
   13.5144,     10692,
   13.5347,     15323,
   13.5549,     23211,
   13.5751,     35593,
   13.5953,     54276,
   13.6155,     78670,
   13.6358,     97522,
    13.656,     97135,
   13.6762,     75577,
   13.6964,     46943,
   13.7166,     23935,
   13.7368,     10766,
   13.7571,      5229,
   13.7773,      3535,
   13.7975,      2978,
   13.8177,      2666,
   13.8379,      2465,
   13.8582,      2341,
   13.8784,      2298,
   13.8986,      2073,
   13.9188,      2107,
    13.939,      1999,
   13.9593,      1833,
   13.9795,      1713,
   13.9997,      1488,
   14.0199,      1347,
   14.0401,      1195,
   14.0603,      1124,
   14.0806,      1129,
   14.1008,       992,
    14.121,      1000,
   14.1412,       947,
   14.1614,       982,
   14.1817,       965,
   14.2019,       935,
   14.2221,       924,
   14.2423,       925,
   14.2625,       971,
   14.2828,       883,
    14.303,       914,
   14.3232,       838,
   14.3434,       897,
   14.3636,       857,
   14.3838,       852,
   14.4041,       922,
   14.4243,       822,
   14.4445,       898,
   14.4647,       839,
   14.4849,       848,
   14.5052,       874,
   14.5254,       790,
   14.5456,       813,
   14.5658,       827,
    14.586,       834,
   14.6063,       784,
   14.6265,       834,
   14.6467,       755,
   14.6669,       870,
   14.6871,       858,
   14.7073,       783,
   14.7276,       759,
   14.7478,       828,
    14.768,       840,
   14.7882,       860,
   14.8084,       826,
   14.8287,       819,
   14.8489,       785,
   14.8691,       805,
   14.8893,       755,
   14.9095,       795,
   14.9298,       767,
     14.95,       748,
   14.9702,       756,
   14.9904,       750,
   15.0106,       718,
   15.0308,       702,
   15.0511,       728,
   15.0713,       748,
   15.0915,       725,
   15.1117,       756,
   15.1319,       767,
   15.1522,       732,
   15.1724,       723,
   15.1926,       702,
   15.2128,       741,
    15.233,       753,
   15.2533,       732,
   15.2735,       640,
   15.2937,       666,
   15.3139,       741,
   15.3341,       749,
   15.3543,       712,
   15.3746,       692,
   15.3948,       738,
    15.415,       680,
   15.4352,       715,
   15.4554,       754,
   15.4757,       681,
   15.4959,       669,
   15.5161,       677,
   15.5363,       703,
   15.5565,       725,
   15.5768,       744,
    15.597,       793,
   15.6172,       718,
   15.6374,       703,
   15.6576,       666,
   15.6778,       660,
   15.6981,       674,
   15.7183,       672,
   15.7385,       676,
   15.7587,       689,
   15.7789,       623,
   15.7992,       648,
   15.8194,       675,
   15.8396,       661,
   15.8598,       648,
     15.88,       658,
   15.9003,       705,
   15.9205,       605,
   15.9407,       653,
   15.9609,       625,
   15.9811,       674,
   16.0013,       631,
   16.0216,       646,
   16.0418,       654,
    16.062,       642,
   16.0822,       645,
   16.1024,       664,
   16.1227,       661,
   16.1429,       641,
   16.1631,       639,
   16.1833,       593,
   16.2035,       675,
   16.2238,       637,
    16.244,       592,
   16.2642,       660,
   16.2844,       633,
   16.3046,       641,
   16.3248,       640,
   16.3451,       568,
   16.3653,       651,
   16.3855,       590,
   16.4057,       596,
   16.4259,       596,
   16.4462,       604,
   16.4664,       603,
   16.4866,       619,
   16.5068,       578,
    16.527,       589,
   16.5473,       625,
   16.5675,       605,
   16.5877,       594,
   16.6079,       597,
   16.6281,       616,
   16.6483,       642,
   16.6686,       606,
   16.6888,       602,
    16.709,       637,
   16.7292,       638,
   16.7494,       651,
   16.7697,       597,
   16.7899,       627,
   16.8101,       599,
   16.8303,       585,
   16.8505,       605,
   16.8708,       576,
    16.891,       583,
   16.9112,       580,
   16.9314,       565,
   16.9516,       588,
   16.9718,       580,
   16.9921,       627,
   17.0123,       595,
   17.0325,       593,
   17.0527,       562,
   17.0729,       601,
   17.0932,       554,
   17.1134,       593,
   17.1336,       568,
   17.1538,       524,
    17.174,       595,
   17.1943,       534,
   17.2145,       551,
   17.2347,       557,
   17.2549,       611,
   17.2751,       592,
   17.2953,       568,
   17.3156,       583,
   17.3358,       517,
    17.356,       538,
   17.3762,       528,
   17.3964,       542,
   17.4167,       541,
   17.4369,       525,
   17.4571,       522,
   17.4773,       528,
   17.4975,       515,
   17.5178,       543,
    17.538,       533,
   17.5582,       570,
   17.5784,       567,
   17.5986,       590,
   17.6188,       576,
   17.6391,       556,
   17.6593,       545,
   17.6795,       559,
   17.6997,       572,
   17.7199,       518,
   17.7402,       532,
   17.7604,       545,
   17.7806,       543,
   17.8008,       511,
    17.821,       543,
   17.8413,       536,
   17.8615,       546,
   17.8817,       575,
   17.9019,       478,
   17.9221,       477,
   17.9423,       557,
   17.9626,       559,
   17.9828,       544,
    18.003,       523,
   18.0232,       543,
   18.0434,       540,
   18.0637,       516,
   18.0839,       504,
   18.1041,       522,
   18.1243,       548,
   18.1445,       519,
   18.1648,       559,
    18.185,       511,
   18.2052,       497,
   18.2254,       538,
   18.2456,       531,
   18.2658,       544,
   18.2861,       530,
   18.3063,       540,
   18.3265,       524,
   18.3467,       485,
   18.3669,       501,
   18.3872,       512,
   18.4074,       507,
   18.4276,       474,
   18.4478,       502,
    18.468,       509,
   18.4883,       462,
   18.5085,       468,
   18.5287,       490,
   18.5489,       502,
   18.5691,       485,
   18.5893,       502,
   18.6096,       521,
   18.6298,       492,
     18.65,       508,
   18.6702,       469,
   18.6904,       500,
   18.7107,       537,
   18.7309,       516,
   18.7511,       498,
   18.7713,       515,
   18.7915,       477,
   18.8118,       505,
    18.832,       507,
   18.8522,       525,
   18.8724,       507,
   18.8926,       494,
   18.9128,       469,
   18.9331,       496,
   18.9533,       479,
   18.9735,       527,
   18.9937,       455,
   19.0139,       479,
   19.0342,       490,
   19.0544,       453,
   19.0746,       517,
   19.0948,       482,
    19.115,       436,
   19.1353,       493,
   19.1555,       488,
   19.1757,       443,
   19.1959,       464,
   19.2161,       516,
   19.2363,       469,
   19.2566,       440,
   19.2768,       432,
    19.297,       472,
   19.3172,       491,
   19.3374,       538,
   19.3577,       506,
   19.3779,       497,
   19.3981,       500,
   19.4183,       502,
   19.4385,       439,
   19.4588,       479,
    19.479,       468,
   19.4992,       479,
   19.5194,       511,
   19.5396,       474,
   19.5599,       460,
   19.5801,       498,
   19.6003,       448,
   19.6205,       481,
   19.6407,       486,
   19.6609,       482,
   19.6812,       442,
   19.7014,       511,
   19.7216,       479,
   19.7418,       501,
    19.762,       455,
   19.7823,       499,
   19.8025,       469,
   19.8227,       440,
   19.8429,       459,
   19.8631,       497,
   19.8834,       497,
   19.9036,       462,
   19.9238,       475,
    19.944,       460,
   19.9642,       496,
   19.9844,       469,
   20.0047,       541,
   20.0249,       498,
   20.0451,       463,
   20.0653,       452,
   20.0855,       476,
   20.1058,       470,
    20.126,       492,
   20.1462,       455,
   20.1664,       408,
   20.1866,       427,
   20.2069,       459,
   20.2271,       455,
   20.2473,       481,
   20.2675,       448,
   20.2877,       446,
   20.3079,       462,
   20.3282,       407,
   20.3484,       416,
   20.3686,       416,
   20.3888,       484,
    20.409,       476,
   20.4293,       443,
   20.4495,       447,
   20.4697,       447,
   20.4899,       482,
   20.5101,       437,
   20.5304,       433,
   20.5506,       430,
   20.5708,       422,
    20.591,       419,
   20.6112,       440,
   20.6314,       464,
   20.6517,       461,
   20.6719,       446,
   20.6921,       425,
   20.7123,       450,
   20.7325,       454,
   20.7528,       452,
    20.773,       442,
   20.7932,       535,
   20.8134,       476,
   20.8336,       459,
   20.8539,       457,
   20.8741,       442,
   20.8943,       428,
   20.9145,       440,
   20.9347,       442,
   20.9549,       433,
   20.9752,       450,
   20.9954,       438,
   21.0156,       458,
   21.0358,       454,
    21.056,       467,
   21.0763,       471,
   21.0965,       492,
   21.1167,       437,
   21.1369,       456,
   21.1571,       501,
   21.1774,       504,
   21.1976,       533,
   21.2178,       507,
    21.238,       436,
   21.2582,       424,
   21.2784,       447,
   21.2987,       458,
   21.3189,       459,
   21.3391,       460,
   21.3593,       428,
   21.3795,       438,
   21.3998,       448,
     21.42,       446,
   21.4402,       443,
   21.4604,       432,
   21.4806,       450,
   21.5009,       462,
   21.5211,       454,
   21.5413,       483,
   21.5615,       489,
   21.5817,       437,
   21.6019,       443,
   21.6222,       461,
   21.6424,       437,
   21.6626,       446,
   21.6828,       450,
    21.703,       503,
   21.7233,       496,
   21.7435,       470,
   21.7637,       551,
   21.7839,       496,
   21.8041,       534,
   21.8244,       560,
   21.8446,       515,
   21.8648,       523,
    21.885,       535,
   21.9052,       561,
   21.9254,       600,
   21.9457,       524,
   21.9659,       509,
   21.9861,       516,
   22.0063,       561,
   22.0265,       546,
   22.0468,       575,
    22.067,       572,
   22.0872,       600,
   22.1074,       586,
   22.1276,       560,
   22.1479,       545,
   22.1681,       534,
   22.1883,       490,
   22.2085,       433,
   22.2287,       456,
   22.2489,       489,
   22.2692,       444,
   22.2894,       420,
   22.3096,       482,
   22.3298,       443,
     22.35,       436,
   22.3703,       467,
   22.3905,       471,
   22.4107,       446,
   22.4309,       442,
   22.4511,       459,
   22.4714,       457,
   22.4916,       446,
   22.5118,       444,
    22.532,       407,
   22.5522,       440,
   22.5724,       453,
   22.5927,       431,
   22.6129,       424,
   22.6331,       423,
   22.6533,       438,
   22.6735,       438,
   22.6938,       418,
    22.714,       432,
   22.7342,       435,
   22.7544,       473,
   22.7746,       417,
   22.7949,       433,
   22.8151,       445,
   22.8353,       444,
   22.8555,       423,
   22.8757,       427,
   22.8959,       430,
   22.9162,       436,
   22.9364,       431,
   22.9566,       434,
   22.9768,       454,
    22.997,       440,
   23.0173,       410,
   23.0375,       445,
   23.0577,       447,
   23.0779,       428,
   23.0981,       464,
   23.1184,       418,
   23.1386,       430,
   23.1588,       420,
    23.179,       451,
   23.1992,       435,
   23.2194,       435,
   23.2397,       474,
   23.2599,       436,
   23.2801,       403,
   23.3003,       460,
   23.3205,       414,
   23.3408,       455,
    23.361,       451,
   23.3812,       447,
   23.4014,       455,
   23.4216,       453,
   23.4419,       455,
   23.4621,       474,
   23.4823,       434,
   23.5025,       475,
   23.5227,       485,
   23.5429,       484,
   23.5632,       446,
   23.5834,       456,
   23.6036,       433,
   23.6238,       429,
    23.644,       472,
   23.6643,       482,
   23.6845,       436,
   23.7047,       466,
   23.7249,       504,
   23.7451,       476,
   23.7654,       502,
   23.7856,       512,
   23.8058,       491,
    23.826,       502,
   23.8462,       537,
   23.8664,       509,
   23.8867,       576,
   23.9069,       547,
   23.9271,       563,
   23.9473,       551,
   23.9675,       560,
   23.9878,       606,
    24.008,       664,
   24.0282,       686,
   24.0484,       736,
   24.0686,       797,
   24.0889,       993,
   24.1091,      1149,
   24.1293,      1443,
   24.1495,      1821,
   24.1697,      2375,
   24.1899,      3038,
   24.2102,      3674,
   24.2304,      3747,
   24.2506,      3659,
   24.2708,      3411,
    24.291,      2637,
   24.3113,      2093,
   24.3315,      1602,
   24.3517,      1281,
   24.3719,       962,
   24.3921,       839,
   24.4124,       739,
   24.4326,       638,
   24.4528,       669,
    24.473,       583,
   24.4932,       609,
   24.5134,       555,
   24.5337,       541,
   24.5539,       518,
   24.5741,       553,
   24.5943,       525,
   24.6145,       535,
   24.6348,       561,
    24.655,       584,
   24.6752,       610,
   24.6954,       711,
   24.7156,       807,
   24.7359,       744,
   24.7561,       707,
   24.7763,       614,
   24.7965,       577,
   24.8167,       520,
   24.8369,       475,
   24.8572,       453,
   24.8774,       457,
   24.8976,       470,
   24.9178,       483,
    24.938,       441,
   24.9583,       447,
   24.9785,       456,
   24.9987,       451,
   25.0189,       452,
   25.0391,       414,
   25.0594,       448,
   25.0796,       434,
   25.0998,       461,
     25.12,       392,
   25.1402,       415,
   25.1604,       447,
   25.1807,       427,
   25.2009,       429,
   25.2211,       401,
   25.2413,       432,
   25.2615,       401,
   25.2818,       429,
    25.302,       443,
   25.3222,       427,
   25.3424,       445,
   25.3626,       423,
   25.3829,       425,
   25.4031,       429,
   25.4233,       432,
   25.4435,       391,
   25.4637,       406,
   25.4839,       383,
   25.5042,       412,
   25.5244,       415,
   25.5446,       459,
   25.5648,       440,
    25.585,       440,
   25.6053,       398,
   25.6255,       410,
   25.6457,       430,
   25.6659,       407,
   25.6861,       422,
   25.7064,       424,
   25.7266,       403,
   25.7468,       425,
    25.767,       406,
   25.7872,       429,
   25.8074,       418,
   25.8277,       480,
   25.8479,       409,
   25.8681,       407,
   25.8883,       442,
   25.9085,       409,
   25.9288,       432,
    25.949,       433,
   25.9692,       418,
   25.9894,       430,
   26.0096,       441,
   26.0299,       445,
   26.0501,       434,
   26.0703,       397,
   26.0905,       406,
   26.1107,       410,
   26.1309,       394,
   26.1512,       414,
   26.1714,       435,
   26.1916,       432,
   26.2118,       423,
    26.232,       416,
   26.2523,       411,
   26.2725,       421,
   26.2927,       423,
   26.3129,       433,
   26.3331,       412,
   26.3534,       395,
   26.3736,       416,
   26.3938,       410,
    26.414,       418,
   26.4342,       404,
   26.4544,       425,
   26.4747,       403,
   26.4949,       451,
   26.5151,       426,
   26.5353,       408,
   26.5555,       405,
   26.5758,       388,
    26.596,       484,
   26.6162,       430,
   26.6364,       470,
   26.6566,       519,
   26.6769,       477,
   26.6971,       540,
   26.7173,       539,
   26.7375,       516,
   26.7577,       594,
   26.7779,       620,
   26.7982,       650,
   26.8184,       733,
   26.8386,       732,
   26.8588,       766,
    26.879,       786,
   26.8993,       760,
   26.9195,       736,
   26.9397,       736,
   26.9599,       717,
   26.9801,       692,
   27.0004,       750,
   27.0206,       739,
   27.0408,       701,
    27.061,       797,
   27.0812,       780,
   27.1014,       748,
   27.1217,       871,
   27.1419,       927,
   27.1621,      1098,
   27.1823,      1365,
   27.2025,      1666,
   27.2228,      2382,
    27.243,      3543,
   27.2632,      5604,
   27.2834,      9367,
   27.3036,     13655,
   27.3239,     16893,
   27.3441,     16703,
   27.3643,     13627,
   27.3845,     10673,
   27.4047,      7524,
   27.4249,      4757,
   27.4452,      2650,
   27.4654,      1578,
   27.4856,      1143,
   27.5058,       969,
    27.526,       901,
   27.5463,       793,
   27.5665,       733,
   27.5867,       724,
   27.6069,       734,
   27.6271,       673,
   27.6474,       636,
   27.6676,       620,
   27.6878,       536,
    27.708,       511,
   27.7282,       572,
   27.7484,       427,
   27.7687,       440,
   27.7889,       491,
   27.8091,       439,
   27.8293,       445,
   27.8495,       417,
   27.8698,       437,
     27.89,       435,
   27.9102,       450,
   27.9304,       452,
   27.9506,       413,
   27.9709,       406,
   27.9911,       415,
   28.0113,       412,
   28.0315,       465,
   28.0517,       439,
   28.0719,       429,
   28.0922,       438,
   28.1124,       417,
   28.1326,       422,
   28.1528,       415,
    28.173,       456,
   28.1933,       425,
   28.2135,       403,
   28.2337,       409,
   28.2539,       401,
   28.2741,       395,
   28.2944,       429,
   28.3146,       423,
   28.3348,       414,
    28.355,       427,
   28.3752,       400,
   28.3954,       406,
   28.4157,       452,
   28.4359,       402,
   28.4561,       417,
   28.4763,       395,
   28.4965,       378,
   28.5168,       371,
    28.537,       419,
   28.5572,       395,
   28.5774,       366,
   28.5976,       416,
   28.6179,       381,
   28.6381,       397,
   28.6583,       374,
   28.6785,       389,
   28.6987,       424,
   28.7189,       384,
   28.7392,       394,
   28.7594,       389,
   28.7796,       386,
   28.7998,       405,
     28.82,       378,
   28.8403,       406,
   28.8605,       418,
   28.8807,       393,
   28.9009,       398,
   28.9211,       400,
   28.9414,       386,
   28.9616,       403,
   28.9818,       420,
    29.002,       405,
   29.0222,       416,
   29.0424,       399,
   29.0627,       420,
   29.0829,       382,
   29.1031,       429,
   29.1233,       388,
   29.1435,       393,
   29.1638,       408,
    29.184,       401,
   29.2042,       379,
   29.2244,       361,
   29.2446,       402,
   29.2649,       364,
   29.2851,       370,
   29.3053,       385,
   29.3255,       379,
   29.3457,       379,
   29.3659,       381,
   29.3862,       379,
   29.4064,       372,
   29.4266,       369,
   29.4468,       394,
    29.467,       346,
   29.4873,       352,
   29.5075,       344,
   29.5277,       403,
   29.5479,       390,
   29.5681,       336,
   29.5884,       361,
   29.6086,       347,
   29.6288,       370,
    29.649,       379,
   29.6692,       399,
   29.6894,       334,
   29.7097,       323,
   29.7299,       328,
   29.7501,       366,
   29.7703,       388,
   29.7905,       391,
   29.8108,       359,
    29.831,       372,
   29.8512,       335,
   29.8714,       342,
   29.8916,       385,
   29.9119,       388,
   29.9321,       363,
   29.9523,       361,
   29.9725,       355,
   29.9927,       357,
   30.0129,       370,
   30.0332,       337,
   30.0534,       365,
   30.0736,       389,
   30.0938,       348,
    30.114,       358,
   30.1343,       337,
   30.1545,       366,
   30.1747,       348,
   30.1949,       341,
   30.2151,       371,
   30.2354,       409,
   30.2556,       367,
   30.2758,       381,
    30.296,       338,
   30.3162,       420,
   30.3365,       364,
   30.3567,       353,
   30.3769,       309,
   30.3971,       383,
   30.4173,       394,
   30.4375,       381,
   30.4578,       396,
    30.478,       368,
   30.4982,       378,
   30.5184,       388,
   30.5386,       330,
   30.5589,       407,
   30.5791,       422,
   30.5993,       455,
   30.6195,       454,
   30.6397,       425,
     30.66,       469,
   30.6802,       448,
   30.7004,       425,
   30.7206,       482,
   30.7408,       470,
    30.761,       453,
   30.7813,       459,
   30.8015,       407,
   30.8217,       395,
   30.8419,       356,
   30.8621,       364,
   30.8824,       368,
   30.9026,       389,
   30.9228,       369,
    30.943,       396,
   30.9632,       383,
   30.9835,       394,
   31.0037,       413,
   31.0239,       374,
   31.0441,       413,
   31.0643,       410,
   31.0845,       386,
   31.1048,       389,
    31.125,       409,
   31.1452,       440,
   31.1654,       433,
   31.1856,       486,
   31.2059,       549,
   31.2261,       607,
   31.2463,       688,
   31.2665,       794,
   31.2867,       890,
    31.307,      1021,
   31.3272,      1001,
   31.3474,      1061,
   31.3676,      1085,
   31.3878,      1068,
    31.408,       986,
   31.4283,       868,
   31.4485,       785,
   31.4687,       712,
   31.4889,       643,
   31.5091,       599,
   31.5294,       565,
   31.5496,       543,
   31.5698,       497,
     31.59,       460,
   31.6102,       418,
   31.6305,       461,
   31.6507,       435,
   31.6709,       397,
   31.6911,       461,
   31.7113,       444,
   31.7315,       465,
   31.7518,       434,
    31.772,       461,
   31.7922,       466,
   31.8124,       472,
   31.8326,       483,
   31.8529,       458,
   31.8731,       521,
   31.8933,       607,
   31.9135,       650,
   31.9337,       792,
    31.954,      1005,
   31.9742,      1116,
   31.9944,      1154,
   32.0146,      1137,
   32.0348,       999,
    32.055,       899,
   32.0753,       798,
   32.0955,       595,
   32.1157,       571,
   32.1359,       480,
   32.1561,       477,
   32.1764,       420,
   32.1966,       412,
   32.2168,       385,
    32.237,       371,
   32.2572,       375,
   32.2775,       392,
   32.2977,       356,
   32.3179,       334,
   32.3381,       340,
   32.3583,       368,
   32.3785,       382,
   32.3988,       359,
    32.419,       342,
   32.4392,       347,
   32.4594,       377,
   32.4796,       381,
   32.4999,       354,
   32.5201,       342,
   32.5403,       350,
   32.5605,       357,
   32.5807,       340,
    32.601,       334,
   32.6212,       366,
   32.6414,       350,
   32.6616,       380,
   32.6818,       389,
    32.702,       365,
   32.7223,       331,
   32.7425,       387,
   32.7627,       389,
   32.7829,       398,
   32.8031,       397,
   32.8234,       453,
   32.8436,       490,
   32.8638,       480,
    32.884,       463,
   32.9042,       438,
   32.9245,       447,
   32.9447,       431,
   32.9649,       378,
   32.9851,       422,
   33.0053,       373,
   33.0255,       357,
   33.0458,       381,
    33.066,       377,
   33.0862,       368,
   33.1064,       364,
   33.1266,       391,
   33.1469,       379,
   33.1671,       399,
   33.1873,       390,
   33.2075,       380,
   33.2277,       408,
    33.248,       411,
   33.2682,       400,
   33.2884,       401,
   33.3086,       405,
   33.3288,       410,
    33.349,       386,
   33.3693,       365,
   33.3895,       410,
   33.4097,       484,
   33.4299,       622,
   33.4501,       726,
   33.4704,       944,
   33.4906,       999,
   33.5108,       933,
    33.531,       805,
   33.5512,       678,
   33.5715,       565,
   33.5917,       528,
   33.6119,       483,
   33.6321,       483,
   33.6523,       493,
   33.6725,       477,
   33.6928,       473,
    33.713,       507,
   33.7332,       547,
   33.7534,       515,
   33.7736,       533,
   33.7939,       564,
   33.8141,       596,
   33.8343,       614,
   33.8545,       752,
   33.8747,       861,
    33.895,       985,
   33.9152,      1226,
   33.9354,      1534,
   33.9556,      1992,
   33.9758,      2844,
    33.996,      3660,
   34.0163,      4406,
   34.0365,      4757,
   34.0567,      4459,
   34.0769,      3856,
   34.0971,      3463,
   34.1174,      2765,
   34.1376,      2140,
   34.1578,      1542,
    34.178,      1163,
   34.1982,       927,
   34.2185,       810,
   34.2387,       694,
   34.2589,       642,
   34.2791,       565,
   34.2993,       563,
   34.3195,       533,
   34.3398,       535,
     34.36,       533,
   34.3802,       522,
   34.4004,       467,
   34.4206,       493,
   34.4409,       468,
   34.4611,       451,
   34.4813,       451,
   34.5015,       448,
   34.5217,       405,
    34.542,       423,
   34.5622,       425,
   34.5824,       409,
   34.6026,       421,
   34.6228,       469,
    34.643,       420,
   34.6633,       413,
   34.6835,       414,
   34.7037,       460,
   34.7239,       445,
   34.7441,       455,
   34.7644,       412,
   34.7846,       473,
   34.8048,       444,
    34.825,       441,
   34.8452,       426,
   34.8655,       440,
   34.8857,       473,
   34.9059,       491,
   34.9261,       457,
   34.9463,       462,
   34.9665,       526,
   34.9868,       492,
    35.007,       539,
   35.0272,       550,
   35.0474,       607,
   35.0676,       573,
   35.0879,       660,
   35.1081,       772,
   35.1283,       753,
   35.1485,       758,
   35.1687,       795,
    35.189,       770,
   35.2092,       783,
   35.2294,       748,
   35.2496,       691,
   35.2698,       694,
     35.29,       610,
   35.3103,       614,
   35.3305,       570,
   35.3507,       497,
   35.3709,       494,
   35.3911,       492,
   35.4114,       465,
   35.4316,       468,
   35.4518,       503,
    35.472,       503,
   35.4922,       477,
   35.5125,       470,
   35.5327,       436,
   35.5529,       465,
   35.5731,       452,
   35.5933,       458,
   35.6135,       438,
   35.6338,       414,
    35.654,       435,
   35.6742,       428,
   35.6944,       441,
   35.7146,       402,
   35.7349,       424,
   35.7551,       377,
   35.7753,       389,
   35.7955,       368,
   35.8157,       367,
    35.836,       410,
   35.8562,       405,
   35.8764,       391,
   35.8966,       405,
   35.9168,       403,
    35.937,       401,
   35.9573,       382,
   35.9775,       417,
   35.9977,       432,
   36.0179,       463,
   36.0381,       427,
   36.0584,       453,
   36.0786,       444,
   36.0988,       514,
    36.119,       505,
   36.1392,       541,
   36.1595,       547,
   36.1797,       590,
   36.1999,       593,
   36.2201,       668,
   36.2403,       720,
   36.2605,       892,
   36.2808,       993,
    36.301,      1208,
   36.3212,      1654,
   36.3414,      2018,
   36.3616,      2261,
   36.3819,      2314,
   36.4021,      2056,
   36.4223,      1932,
   36.4425,      1882,
   36.4627,      1668,
    36.483,      1371,
   36.5032,      1138,
   36.5234,      1046,
   36.5436,       913,
   36.5638,       886,
    36.584,       759,
   36.6043,       806,
   36.6245,       825,
   36.6447,       809,
   36.6649,       904,
   36.6851,       864,
   36.7054,       913,
   36.7256,       943,
   36.7458,       992,
    36.766,      1033,
   36.7862,       984,
   36.8065,      1123,
   36.8267,      1151,
   36.8469,      1394,
   36.8671,      1576,
   36.8873,      1836,
   36.9075,      2066,
   36.9278,      2472,
    36.948,      2964,
   36.9682,      4241,
   36.9884,      6304,
   37.0086,     10923,
   37.0289,     17700,
   37.0491,     28199,
   37.0693,     38164,
   37.0895,     38730,
   37.1097,     30858,
     37.13,     24852,
   37.1502,     24685,
   37.1704,     20880,
   37.1906,     14218,
   37.2108,      8132,
    37.231,      4878,
   37.2513,      3273,
   37.2715,      2487,
   37.2917,      2029,
   37.3119,      1619,
   37.3321,      1468,
   37.3524,      1378,
   37.3726,      1179,
   37.3928,      1086,
    37.413,      1113,
   37.4332,      1038,
   37.4535,       873,
   37.4737,       803,
   37.4939,       872,
   37.5141,       808,
   37.5343,       705,
   37.5545,       692,
   37.5748,       675,
    37.595,       621,
   37.6152,       612,
   37.6354,       581,
   37.6556,       520,
   37.6759,       526,
   37.6961,       538,
   37.7163,       548,
   37.7365,       460,
   37.7567,       512,
    37.777,       483,
   37.7972,       444,
   37.8174,       432,
   37.8376,       467,
   37.8578,       435,
    37.878,       408,
   37.8983,       444,
   37.9185,       396,
   37.9387,       386,
   37.9589,       395,
   37.9791,       425,
   37.9994,       466,
   38.0196,       404,
   38.0398,       417,
     38.06,       404,
   38.0802,       362,
   38.1005,       412,
   38.1207,       388,
   38.1409,       392,
   38.1611,       388,
   38.1813,       420,
   38.2015,       386,
   38.2218,       393,
    38.242,       445,
   38.2622,       421,
   38.2824,       408,
   38.3026,       430,
   38.3229,       426,
   38.3431,       442,
   38.3633,       416,
   38.3835,       393,
   38.4037,       441,
    38.424,       427,
   38.4442,       396,
   38.4644,       416,
   38.4846,       406,
   38.5048,       402,
    38.525,       404,
   38.5453,       385,
   38.5655,       415,
   38.5857,       433,
   38.6059,       397,
   38.6261,       469,
   38.6464,       456,
   38.6666,       478,
   38.6868,       453,
    38.707,       465,
   38.7272,       471,
   38.7475,       489,
   38.7677,       465,
   38.7879,       493,
   38.8081,       490,
   38.8283,       526,
   38.8485,       537,
   38.8688,       605,
    38.889,       648,
   38.9092,       694,
   38.9294,       912,
   38.9496,      1083,
   38.9699,      1244,
   38.9901,      1450,
   39.0103,      1628,
   39.0305,      1719,
   39.0507,      1610,
    39.071,      1579,
   39.0912,      1485,
   39.1114,      1293,
   39.1316,      1142,
   39.1518,      1038,
    39.172,       808,
   39.1923,       664,
   39.2125,       584,
   39.2327,       542,
   39.2529,       518,
   39.2731,       490,
   39.2934,       480,
   39.3136,       457,
   39.3338,       407,
    39.354,       440,
   39.3742,       394,
   39.3945,       412,
   39.4147,       389,
   39.4349,       410,
   39.4551,       388,
   39.4753,       416,
   39.4955,       368,
   39.5158,       373,
    39.536,       364,
   39.5562,       334,
   39.5764,       363,
   39.5966,       333,
   39.6169,       353,
   39.6371,       360,
   39.6573,       372,
   39.6775,       372,
   39.6977,       354,
    39.718,       321,
   39.7382,       342,
   39.7584,       358,
   39.7786,       322,
   39.7988,       320,
    39.819,       331,
   39.8393,       335,
   39.8595,       329,
   39.8797,       336,
   39.8999,       316,
   39.9201,       341,
   39.9404,       339,
   39.9606,       351,
   39.9808,       327,
    40.001,       357,
   40.0212,       338,
   40.0415,       365,
   40.0617,       341,
   40.0819,       363,
   40.1021,       337,
   40.1223,       323,
   40.1425,       344,
   40.1628,       305,
    40.183,       345,
   40.2032,       358,
   40.2234,       349,
   40.2436,       393,
   40.2639,       384,
   40.2841,       419,
   40.3043,       403,
   40.3245,       451,
   40.3447,       511,
    40.365,       586,
   40.3852,       577,
   40.4054,       624,
   40.4256,       567,
   40.4458,       520,
    40.466,       523,
   40.4863,       483,
   40.5065,       483,
   40.5267,       430,
   40.5469,       409,
   40.5671,       384,
   40.5874,       344,
   40.6076,       377,
   40.6278,       348,
    40.648,       326,
   40.6682,       340,
   40.6885,       282,
   40.7087,       338,
   40.7289,       338,
   40.7491,       355,
   40.7693,       335,
   40.7895,       328,
   40.8098,       323,
     40.83,       347,
   40.8502,       312,
   40.8704,       306,
   40.8906,       312,
   40.9109,       338,
   40.9311,       372,
   40.9513,       330,
   40.9715,       304,
   40.9917,       306,
    41.012,       296,
   41.0322,       303,
   41.0524,       332,
   41.0726,       364,
   41.0928,       303,
   41.1131,       312,
   41.1333,       325,
   41.1535,       320,
   41.1737,       332,
   41.1939,       361,
   41.2141,       316,
   41.2344,       314,
   41.2546,       331,
   41.2748,       390,
    41.295,       365,
   41.3152,       373,
   41.3355,       445,
   41.3557,       541,
   41.3759,       594,
   41.3961,       814,
   41.4163,      1044,
   41.4366,       997,
   41.4568,       887,
    41.477,       767,
   41.4972,       726,
   41.5174,       667,
   41.5376,       594,
   41.5579,       547,
   41.5781,       432,
   41.5983,       362,
   41.6185,       349,
   41.6387,       304,
    41.659,       305,
   41.6792,       349,
   41.6994,       330,
   41.7196,       305,
   41.7398,       328,
   41.7601,       309,
   41.7803,       351,
   41.8005,       336,
   41.8207,       333,
   41.8409,       335,
   41.8611,       335,
   41.8814,       338,
   41.9016,       328,
   41.9218,       324,
    41.942,       346,
   41.9622,       378,
   41.9825,       361,
   42.0027,       402,
   42.0229,       432,
   42.0431,       518,
   42.0633,       566,
   42.0836,       605,
   42.1038,       626,
    42.124,       511,
   42.1442,       579,
   42.1644,       585,
   42.1846,       539,
   42.2049,       559,
   42.2251,       444,
   42.2453,       424,
   42.2655,       416,
   42.2857,       400,
    42.306,       390,
   42.3262,       339,
   42.3464,       357,
   42.3666,       348,
   42.3868,       335,
   42.4071,       324,
   42.4273,       382,
   42.4475,       384,
   42.4677,       362,
   42.4879,       344,
   42.5081,       340,
   42.5284,       348,
   42.5486,       389,
   42.5688,       324,
    42.589,       346,
   42.6092,       302,
   42.6295,       310,
   42.6497,       318,
   42.6699,       328,
   42.6901,       295,
   42.7103,       306,
   42.7306,       334,
   42.7508,       338,
    42.771,       333,
   42.7912,       347,
   42.8114,       404,
   42.8316,       390,
   42.8519,       412,
   42.8721,       468,
   42.8923,       448,
   42.9125,       415,
   42.9327,       422,
    42.953,       424,
   42.9732,       404,
   42.9934,       377,
   43.0136,       360,
   43.0338,       354,
   43.0541,       369,
   43.0743,       297,
   43.0945,       326,
   43.1147,       310,
   43.1349,       291,
   43.1551,       303,
   43.1754,       298,
   43.1956,       276,
   43.2158,       283,
    43.236,       290,
   43.2562,       263,
   43.2765,       300,
   43.2967,       273,
   43.3169,       282,
   43.3371,       284,
   43.3573,       296,
   43.3776,       283,
   43.3978,       289,
    43.418,       287,
   43.4382,       274,
   43.4584,       305,
   43.4786,       276,
   43.4989,       273,
   43.5191,       254,
   43.5393,       298,
   43.5595,       281,
   43.5797,       321,
      43.6,       297,
   43.6202,       316,
   43.6404,       300,
   43.6606,       329,
   43.6808,       355,
   43.7011,       323,
   43.7213,       377,
   43.7415,       423,
   43.7617,       419,
   43.7819,       425,
   43.8021,       433,
   43.8224,       384,
   43.8426,       368,
   43.8628,       403,
    43.883,       347,
   43.9032,       336,
   43.9235,       354,
   43.9437,       318,
   43.9639,       319,
   43.9841,       317,
   44.0043,       301,
   44.0246,       280,
   44.0448,       304,
    44.065,       274,
   44.0852,       318,
   44.1054,       310,
   44.1256,       291,
   44.1459,       297,
   44.1661,       277,
   44.1863,       346,
   44.2065,       322,
   44.2267,       303,
    44.247,       338,
   44.2672,       336,
   44.2874,       361,
   44.3076,       345,
   44.3278,       344,
   44.3481,       337,
   44.3683,       345,
   44.3885,       320,
   44.4087,       300,
   44.4289,       316,
   44.4491,       268,
   44.4694,       327,
   44.4896,       316,
   44.5098,       266,
     44.53,       309,
   44.5502,       292,
   44.5705,       280,
   44.5907,       284,
   44.6109,       304,
   44.6311,       260,
   44.6513,       294,
   44.6716,       305,
   44.6918,       282,
    44.712,       308,
   44.7322,       319,
   44.7524,       352,
   44.7726,       345,
   44.7929,       366,
   44.8131,       365,
   44.8333,       422,
   44.8535,       403,
   44.8737,       434,
    44.894,       448,
   44.9142,       485,
   44.9344,       470,
   44.9546,       419,
   44.9748,       449,
   44.9951,       423,
   45.0153,       397,
   45.0355,       356,
   45.0557,       388,
   45.0759,       330,
   45.0961,       331,
   45.1164,       296,
   45.1366,       307,
   45.1568,       335,
    45.177,       279,
   45.1972,       292,
   45.2175,       279,
   45.2377,       287,
   45.2579,       314,
   45.2781,       287,
   45.2983,       251,
   45.3186,       256,
   45.3388,       266,
    45.359,       266,
   45.3792,       254,
   45.3994,       273,
   45.4196,       287,
   45.4399,       284,
   45.4601,       282,
   45.4803,       268,
   45.5005,       248,
   45.5207,       241,
    45.541,       294,
   45.5612,       241,
   45.5814,       251,
   45.6016,       256,
   45.6218,       264,
   45.6421,       256,
   45.6623,       251,
   45.6825,       253,
   45.7027,       259,
   45.7229,       253,
   45.7431,       278,
   45.7634,       270,
   45.7836,       271,
   45.8038,       268,
    45.824,       276,
   45.8442,       290,
   45.8645,       264,
   45.8847,       247,
   45.9049,       275,
   45.9251,       254,
   45.9453,       265,
   45.9656,       252,
   45.9858,       271,
    46.006,       248,
   46.0262,       238,
   46.0464,       284,
   46.0666,       267,
   46.0869,       278,
   46.1071,       265,
   46.1273,       318,
   46.1475,       291,
   46.1677,       257,
    46.188,       290,
   46.2082,       304,
   46.2284,       267,
   46.2486,       250,
   46.2688,       270,
   46.2891,       259,
   46.3093,       260,
   46.3295,       252,
   46.3497,       275,
   46.3699,       276,
   46.3901,       261,
   46.4104,       243,
   46.4306,       225,
   46.4508,       244,
    46.471,       235,
   46.4912,       262,
   46.5115,       305,
   46.5317,       253,
   46.5519,       244,
   46.5721,       252,
   46.5923,       240,
   46.6126,       258,
   46.6328,       289,
    46.653,       273,
   46.6732,       267,
   46.6934,       239,
   46.7136,       272,
   46.7339,       272,
   46.7541,       259,
   46.7743,       257,
   46.7945,       231,
   46.8147,       232,
    46.835,       262,
   46.8552,       270,
   46.8754,       276,
   46.8956,       234,
   46.9158,       249,
   46.9361,       227,
   46.9563,       277,
   46.9765,       219,
   46.9967,       261,
   47.0169,       253,
   47.0371,       263,
   47.0574,       277,
   47.0776,       302,
   47.0978,       284,
    47.118,       288,
   47.1382,       292,
   47.1585,       302,
   47.1787,       292,
   47.1989,       277,
   47.2191,       290,
   47.2393,       294,
   47.2596,       298,
   47.2798,       322,
      47.3,       300,
   47.3202,       301,
   47.3404,       323,
   47.3606,       350,
   47.3809,       341,
   47.4011,       343,
   47.4213,       364,
   47.4415,       375,
   47.4617,       414,
    47.482,       407,
   47.5022,       450,
   47.5224,       453,
   47.5426,       466,
   47.5628,       549,
   47.5831,       640,
   47.6033,       728,
   47.6235,       825,
   47.6437,       868,
   47.6639,       786,
   47.6841,       729,
   47.7044,       683,
   47.7246,       709,
   47.7448,       645,
    47.765,       538,
   47.7852,       506,
   47.8055,       451,
   47.8257,       407,
   47.8459,       389,
   47.8661,       377,
   47.8863,       338,
   47.9066,       359,
   47.9268,       361,
    47.947,       377,
   47.9672,       352,
   47.9874,       336,
   48.0076,       362,
   48.0279,       353,
   48.0481,       407,
   48.0683,       384,
   48.0885,       350,
   48.1087,       321,
    48.129,       302,
   48.1492,       283,
   48.1694,       269,
   48.1896,       310,
   48.2098,       249,
   48.2301,       272,
   48.2503,       306,
   48.2705,       280,
   48.2907,       278,
   48.3109,       294,
   48.3311,       237,
   48.3514,       273,
   48.3716,       289,
   48.3918,       277,
    48.412,       250,
   48.4322,       234,
   48.4525,       274,
   48.4727,       259,
   48.4929,       241,
   48.5131,       251,
   48.5333,       233,
   48.5536,       227,
   48.5738,       250,
    48.594,       193,
   48.6142,       244,
   48.6344,       237,
   48.6546,       230,
   48.6749,       252,
   48.6951,       233,
   48.7153,       218,
   48.7355,       263,
   48.7557,       236,
    48.776,       247,
   48.7962,       209,
   48.8164,       219,
   48.8366,       231,
   48.8568,       203,
   48.8771,       248,
   48.8973,       236,
   48.9175,       211,
   48.9377,       235,
   48.9579,       250,
   48.9781,       217,
   48.9984,       226,
   49.0186,       225,
   49.0388,       240,
    49.059,       221,
   49.0792,       201,
   49.0995,       230,
   49.1197,       236,
   49.1399,       219,
   49.1601,       211,
   49.1803,       196,
   49.2006,       198,
   49.2208,       220,
    49.241,       227,
   49.2612,       225,
   49.2814,       261,
   49.3016,       251,
   49.3219,       226,
   49.3421,       243,
   49.3623,       243,
   49.3825,       245,
   49.4027,       278,
    49.423,       255,
   49.4432,       245,
   49.4634,       253,
   49.4836,       269,
   49.5038,       260,
   49.5241,       252,
   49.5443,       269,
   49.5645,       242,
   49.5847,       247,
   49.6049,       264,
   49.6251,       254,
   49.6454,       230,
   49.6656,       262,
   49.6858,       249,
    49.706,       244,
   49.7262,       226,
   49.7465,       258,
   49.7667,       276,
   49.7869,       220,
   49.8071,       228,
   49.8273,       231,
   49.8476,       247,
   49.8678,       249,
    49.888,       232,
   49.9082,       272,
   49.9284,       232,
   49.9486,       228,
   49.9689,       238,
   49.9891,       208,
   50.0093,       256,
   50.0295,       238,
   50.0497,       249,
     50.07,       210,
   50.0902,       261,
   50.1104,       258,
   50.1306,       242,
   50.1508,       254,
   50.1711,       233,
   50.1913,       221,
   50.2115,       256,
   50.2317,       260,
   50.2519,       260,
   50.2721,       240,
   50.2924,       235,
   50.3126,       241,
   50.3328,       280,
    50.353,       277,
   50.3732,       273,
   50.3935,       270,
   50.4137,       297,
   50.4339,       282,
   50.4541,       316,
   50.4743,       305,
   50.4946,       341,
   50.5148,       325,
    50.535,       380,
   50.5552,       328,
   50.5754,       342,
   50.5956,       351,
   50.6159,       355,
   50.6361,       331,
   50.6563,       373,
   50.6765,       396,
   50.6967,       365,
    50.717,       392,
   50.7372,       435,
   50.7574,       498,
   50.7776,       551,
   50.7978,       652,
   50.8181,       816,
   50.8383,      1246,
   50.8585,      1396,
   50.8787,      1404,
   50.8989,      1111,
   50.9191,       929,
   50.9394,       888,
   50.9596,       947,
   50.9798,      1072,
        51,       946,
   51.0202,       741,
   51.0405,       628,
   51.0607,       580,
   51.0809,       511,
   51.1011,       535,
   51.1213,       538,
   51.1416,       617,
   51.1618,       657,
    51.182,       737,
   51.2022,       665,
   51.2224,       651,
   51.2426,       585,
   51.2629,       578,
   51.2831,       574,
   51.3033,       521,
   51.3235,       526,
   51.3437,       463,
    51.364,       400,
   51.3842,       337,
   51.4044,       312,
   51.4246,       317,
   51.4448,       302,
   51.4651,       296,
   51.4853,       264,
   51.5055,       308,
   51.5257,       299,
   51.5459,       293,
   51.5661,       263,
   51.5864,       288,
   51.6066,       276,
   51.6268,       280,
    51.647,       251,
   51.6672,       254,
   51.6875,       291,
   51.7077,       294,
   51.7279,       299,
   51.7481,       298,
   51.7683,       306,
   51.7886,       291,
   51.8088,       302,
    51.829,       302,
   51.8492,       338,
   51.8694,       316,
   51.8897,       349,
   51.9099,       329,
   51.9301,       335,
   51.9503,       323,
   51.9705,       327,
   51.9907,       305,
    52.011,       308,
   52.0312,       300,
   52.0514,       286,
   52.0716,       284,
   52.0918,       279,
   52.1121,       277,
   52.1323,       276,
   52.1525,       293,
   52.1727,       271,
   52.1929,       297,
   52.2132,       305,
   52.2334,       294,
   52.2536,       342,
   52.2738,       327,
    52.294,       355,
   52.3142,       394,
   52.3345,       395,
   52.3547,       390,
   52.3749,       328,
   52.3951,       326,
   52.4153,       324,
   52.4356,       322,
   52.4558,       315,
    52.476,       323,
   52.4962,       299,
   52.5164,       290,
   52.5367,       284,
   52.5569,       306,
   52.5771,       290,
   52.5973,       285,
   52.6175,       295,
   52.6377,       324,
    52.658,       319,
   52.6782,       278,
   52.6984,       296,
   52.7186,       313,
   52.7388,       332,
   52.7591,       314,
   52.7793,       343,
   52.7995,       318,
   52.8197,       325,
   52.8399,       299,
   52.8602,       372,
   52.8804,       312,
   52.9006,       341,
   52.9208,       349,
    52.941,       357,
   52.9612,       365,
   52.9815,       420,
   53.0017,       419,
   53.0219,       415,
   53.0421,       443,
   53.0623,       504,
   53.0826,       496,
   53.1028,       527,
    53.123,       541,
   53.1432,       661,
   53.1634,       669,
   53.1837,       765,
   53.2039,       817,
   53.2241,       967,
   53.2443,      1081,
   53.2645,      1351,
   53.2847,      1760,
    53.305,      2216,
   53.3252,      3191,
   53.3454,      4158,
   53.3656,      4882,
   53.3858,      4875,
   53.4061,      4306,
   53.4263,      3893,
   53.4465,      3650,
   53.4667,      3476,
   53.4869,      3449,
   53.5072,      3079,
   53.5274,      2595,
   53.5476,      2075,
   53.5678,      1732,
    53.588,      1305,
   53.6082,      1065,
   53.6285,       908,
   53.6487,       753,
   53.6689,       674,
   53.6891,       559,
   53.7093,       552,
   53.7296,       497,
   53.7498,       447,
     53.77,       452,
   53.7902,       427,
   53.8104,       411,
   53.8307,       396,
   53.8509,       416,
   53.8711,       353,
   53.8913,       315,
   53.9115,       326,
   53.9317,       299,
    53.952,       295,
   53.9722,       283,
   53.9924,       311,
   54.0126,       282,
   54.0328,       267,
   54.0531,       284,
   54.0733,       251,
   54.0935,       265,
   54.1137,       275,
   54.1339,       220,
   54.1542,       280,
   54.1744,       253,
   54.1946,       265,
   54.2148,       251,
    54.235,       266,
   54.2552,       258,
   54.2755,       290,
   54.2957,       255,
   54.3159,       267,
   54.3361,       283,
   54.3563,       272,
   54.3766,       263,
   54.3968,       272,
    54.417,       253,
   54.4372,       253,
   54.4574,       259,
   54.4777,       251,
   54.4979,       289,
   54.5181,       284,
   54.5383,       274,
   54.5585,       332,
   54.5787,       328,
    54.599,       289,
   54.6192,       271,
   54.6394,       279,
   54.6596,       255,
   54.6798,       265,
   54.7001,       282,
   54.7203,       292,
   54.7405,       243,
   54.7607,       240,
   54.7809,       239,
   54.8012,       221,
   54.8214,       233,
   54.8416,       232,
   54.8618,       202,
    54.882,       222,
   54.9022,       232,
   54.9225,       232,
   54.9427,       237,
   54.9629,       243,
   54.9831,       262,
   55.0033,       240,
   55.0236,       226,
   55.0438,       212,
    55.064,       223,
   55.0842,       251,
   55.1044,       230,
   55.1247,       258,
   55.1449,       253,
   55.1651,       239,
   55.1853,       243,
   55.2055,       258,
   55.2257,       250,
    55.246,       226,
   55.2662,       246,
   55.2864,       245,
   55.3066,       251,
   55.3268,       239,
   55.3471,       229,
   55.3673,       217,
   55.3875,       235,
   55.4077,       256,
   55.4279,       244,
   55.4482,       243,
   55.4684,       251,
   55.4886,       211,
   55.5088,       210,
    55.529,       243,
   55.5492,       219,
   55.5695,       218,
   55.5897,       219,
   55.6099,       215,
   55.6301,       269,
   55.6503,       226,
   55.6706,       248,
   55.6908,       266,
    55.711,       230,
   55.7312,       265,
   55.7514,       286,
   55.7717,       281,
   55.7919,       273,
   55.8121,       276,
   55.8323,       275,
   55.8525,       282,
   55.8727,       332,
    55.893,       297,
   55.9132,       303,
   55.9334,       330,
   55.9536,       368,
   55.9738,       341,
   55.9941,       351,
   56.0143,       410,
   56.0345,       395,
   56.0547,       407,
   56.0749,       486,
   56.0952,       528,
   56.1154,       651,
   56.1356,       803,
   56.1558,       998,
    56.176,      1387,
   56.1962,      1831,
   56.2165,      2105,
   56.2367,      2153,
   56.2569,      2058,
   56.2771,      1847,
   56.2973,      1624,
   56.3176,      1588,
   56.3378,      1575,
    56.358,      1463,
   56.3782,      1304,
   56.3984,      1079,
   56.4187,       933,
   56.4389,       840,
   56.4591,       655,
   56.4793,       583,
   56.4995,       499,
   56.5197,       421,
     56.54,       396,
   56.5602,       375,
   56.5804,       401,
   56.6006,       351,
   56.6208,       363,
   56.6411,       346,
   56.6613,       315,
   56.6815,       361,
   56.7017,       330,
   56.7219,       360,
   56.7422,       338,
   56.7624,       352,
   56.7826,       400,
   56.8028,       438,
    56.823,       439,
   56.8432,       464,
   56.8635,       512,
   56.8837,       461,
   56.9039,       490,
   56.9241,       480,
   56.9443,       458,
   56.9646,       428,
   56.9848,       445,
    57.005,       405,
   57.0252,       412,
   57.0454,       403,
   57.0657,       365,
   57.0859,       360,
   57.1061,       334,
   57.1263,       304,
   57.1465,       292,
   57.1667,       279,
    57.187,       281,
   57.2072,       266,
   57.2274,       289,
   57.2476,       267,
   57.2678,       258,
   57.2881,       302,
   57.3083,       282,
   57.3285,       308,
   57.3487,       270,
   57.3689,       257,
   57.3892,       264,
   57.4094,       299,
   57.4296,       256,
   57.4498,       275,
     57.47,       244,
   57.4902,       249,
   57.5105,       247,
   57.5307,       231,
   57.5509,       237,
   57.5711,       248,
   57.5913,       270,
   57.6116,       289,
   57.6318,       247,
    57.652,       244,
   57.6722,       221,
   57.6924,       229,
   57.7127,       214,
   57.7329,       213,
   57.7531,       237,
   57.7733,       213,
   57.7935,       210,
   57.8137,       202,
    57.834,       237,
   57.8542,       236,
   57.8744,       214,
   57.8946,       199,
   57.9148,       187,
   57.9351,       231,
   57.9553,       228,
   57.9755,       244,
   57.9957,       219,
   58.0159,       210,
   58.0362,       230,
   58.0564,       219,
   58.0766,       204,
   58.0968,       236,
    58.117,       224,
   58.1372,       223,
   58.1575,       219,
   58.1777,       230,
   58.1979,       252,
   58.2181,       248,
   58.2383,       220,
   58.2586,       227,
   58.2788,       208,
    58.299,       220,
   58.3192,       230,
   58.3394,       229,
   58.3597,       223,
   58.3799,       235,
   58.4001,       223,
   58.4203,       230,
   58.4405,       229,
   58.4607,       223,
    58.481,       216,
   58.5012,       216,
   58.5214,       238,
   58.5416,       227,
   58.5618,       239,
   58.5821,       215,
   58.6023,       245,
   58.6225,       215,
   58.6427,       209,
   58.6629,       210,
   58.6832,       245,
   58.7034,       211,
   58.7236,       213,
   58.7438,       214,
    58.764,       218,
   58.7842,       237,
   58.8045,       233,
   58.8247,       209,
   58.8449,       242,
   58.8651,       239,
   58.8853,       224,
   58.9056,       240,
   58.9258,       246,
    58.946,       249,
   58.9662,       231,
   58.9864,       259,
   59.0067,       229,
   59.0269,       286,
   59.0471,       292,
   59.0673,       284,
   59.0875,       303,
   59.1077,       348,
    59.128,       388,
   59.1482,       440,
   59.1684,       516,
   59.1886,       559,
   59.2088,       672,
   59.2291,       731,
   59.2493,       690,
   59.2695,       591,
   59.2897,       553,
   59.3099,       537,
   59.3302,       527,
   59.3504,       518,
   59.3706,       524,
   59.3908,       426,
    59.411,       424,
   59.4312,       374,
   59.4515,       334,
   59.4717,       289,
   59.4919,       319,
   59.5121,       320,
   59.5323,       282,
   59.5526,       288,
   59.5728,       274,
    59.593,       257,
   59.6132,       290,
   59.6334,       290,
   59.6537,       324,
   59.6739,       344,
   59.6941,       347,
   59.7143,       340,
   59.7345,       358,
   59.7547,       288,
    59.775,       325,
   59.7952,       314,
   59.8154,       301,
   59.8356,       284,
   59.8558,       288,
   59.8761,       330,
   59.8963,       291,
   59.9165,       277,
   59.9367,       235,
   59.9569,       303,
   59.9772,       245,
   59.9974,       282,
   60.0176,       285,
   60.0378,       297,
    60.058,       299,
   60.0782,       344,
   60.0985,       299,
   60.1187,       307,
   60.1389,       319,
   60.1591,       321,
   60.1793,       399,
   60.1996,       409,
   60.2198,       423,
     60.24,       478,
   60.2602,       451,
   60.2804,       454,
   60.3007,       400,
   60.3209,       395,
   60.3411,       399,
   60.3613,       454,
   60.3815,       449,
   60.4017,       491,
    60.422,       501,
   60.4422,       576,
   60.4624,       641,
   60.4826,       689,
   60.5028,       723,
   60.5231,       651,
   60.5433,       520,
   60.5635,       449,
   60.5837,       455,
   60.6039,       440,
   60.6242,       478,
   60.6444,       434,
   60.6646,       427,
   60.6848,       341,
    60.705,       333,
   60.7252,       278,
   60.7455,       267,
   60.7657,       239,
   60.7859,       220,
   60.8061,       219,
   60.8263,       208,
   60.8466,       236,
   60.8668,       230,
    60.887,       201,
   60.9072,       198,
   60.9274,       193,
   60.9477,       195,
   60.9679,       217,
   60.9881,       216,
   61.0083,       215,
   61.0285,       230,
   61.0487,       180,
    61.069,       195,
   61.0892,       184,
   61.1094,       196,
   61.1296,       215,
   61.1498,       208,
   61.1701,       195,
   61.1903,       201,
   61.2105,       196,
   61.2307,       183,
   61.2509,       182,
   61.2712,       197,
   61.2914,       189,
   61.3116,       189,
   61.3318,       203,
    61.352,       178,
   61.3722,       175,
   61.3925,       179,
   61.4127,       162,
   61.4329,       192,
   61.4531,       189,
   61.4733,       190,
   61.4936,       173,
   61.5138,       180,
    61.534,       175,
   61.5542,       208,
   61.5744,       184,
   61.5947,       177,
   61.6149,       188,
   61.6351,       205,
   61.6553,       191,
   61.6755,       180,
   61.6957,       182,
    61.716,       217,
   61.7362,       214,
   61.7564,       183,
   61.7766,       179,
   61.7968,       171,
   61.8171,       167,
   61.8373,       175,
   61.8575,       200,
   61.8777,       178,
   61.8979,       222,
   61.9182,       178,
   61.9384,       201,
   61.9586,       188,
   61.9788,       190,
    61.999,       179,
   62.0192,       162,
   62.0395,       174,
   62.0597,       190,
   62.0799,       161,
   62.1001,       175,
   62.1203,       178,
   62.1406,       177,
   62.1608,       177,
    62.181,       192,
   62.2012,       191,
   62.2214,       174,
   62.2417,       182,
   62.2619,       201,
   62.2821,       176,
   62.3023,       168,
   62.3225,       195,
   62.3427,       178,
    62.363,       194,
   62.3832,       168,
   62.4034,       190,
   62.4236,       190,
   62.4438,       205,
   62.4641,       184,
   62.4843,       205,
   62.5045,       187,
   62.5247,       203,
   62.5449,       201,
   62.5652,       183,
   62.5854,       184,
   62.6056,       158,
   62.6258,       189,
    62.646,       159,
   62.6663,       159,
   62.6865,       165,
   62.7067,       169,
   62.7269,       191,
   62.7471,       170,
   62.7673,       180,
   62.7876,       173,
   62.8078,       179,
    62.828,       158,
   62.8482,       170,
   62.8684,       183,
   62.8887,       191,
   62.9089,       157,
   62.9291,       183,
   62.9493,       185,
   62.9695,       184,
   62.9898,       181,
     63.01,       195,
   63.0302,       197,
   63.0504,       163,
   63.0706,       172,
   63.0908,       197,
   63.1111,       170,
   63.1313,       189,
   63.1515,       202,
   63.1717,       172,
   63.1919,       191,
   63.2122,       183,
   63.2324,       180,
   63.2526,       188,
   63.2728,       200,
    63.293,       193,
   63.3133,       200,
   63.3335,       212,
   63.3537,       206,
   63.3739,       219,
   63.3941,       198,
   63.4143,       240,
   63.4346,       233,
   63.4548,       262,
    63.475,       277,
   63.4952,       329,
   63.5154,       337,
   63.5357,       338,
   63.5559,       303,
   63.5761,       306,
   63.5963,       291,
   63.6165,       256,
   63.6368,       288,
    63.657,       269,
   63.6772,       280,
   63.6974,       263,
   63.7176,       256,
   63.7378,       268,
   63.7581,       209,
   63.7783,       209,
   63.7985,       186,
   63.8187,       179,
   63.8389,       185,
   63.8592,       181,
   63.8794,       182,
   63.8996,       181,
   63.9198,       178,
     63.94,       201,
   63.9603,       185,
   63.9805,       211,
   64.0007,       175,
   64.0209,       192,
   64.0411,       176,
   64.0613,       221,
   64.0816,       171,
   64.1018,       196,
    64.122,       181,
   64.1422,       186,
   64.1624,       185,
   64.1827,       173,
   64.2029,       187,
   64.2231,       187,
   64.2433,       198,
   64.2635,       190,
   64.2838,       187,
    64.304,       187,
   64.3242,       176,
   64.3444,       187,
   64.3646,       179,
   64.3848,       168,
   64.4051,       195,
   64.4253,       198,
   64.4455,       160,
   64.4657,       202,
   64.4859,       190,
   64.5062,       182,
   64.5264,       185,
   64.5466,       159,
   64.5668,       168,
    64.587,       173,
   64.6073,       178,
   64.6275,       179,
   64.6477,       172,
   64.6679,       182,
   64.6881,       169,
   64.7083,       170,
   64.7286,       171,
   64.7488,       184,
    64.769,       175,
   64.7892,       187,
   64.8094,       222,
   64.8297,       174,
   64.8499,       188,
   64.8701,       214,
   64.8903,       177,
   64.9105,       185,
   64.9308,       174,
    64.951,       225,
   64.9712,       216,
   64.9914,       235,
   65.0116,       231,
   65.0318,       244,
   65.0521,       240,
   65.0723,       295,
   65.0925,       307,
   65.1127,       318,
   65.1329,       294,
   65.1532,       292,
   65.1734,       262,
   65.1936,       265,
   65.2138,       243,
    65.234,       296,
   65.2543,       272,
   65.2745,       252,
   65.2947,       257,
   65.3149,       267,
   65.3351,       220,
   65.3553,       230,
   65.3756,       235,
   65.3958,       211,
    65.416,       201,
   65.4362,       214,
   65.4564,       216,
   65.4767,       196,
   65.4969,       197,
   65.5171,       214,
   65.5373,       201,
   65.5575,       202,
   65.5778,       188,
    65.598,       185,
   65.6182,       208,
   65.6384,       214,
   65.6586,       189,
   65.6788,       186,
   65.6991,       198,
   65.7193,       222,
   65.7395,       201,
   65.7597,       210,
   65.7799,       209,
   65.8002,       210,
   65.8204,       221,
   65.8406,       228,
   65.8608,       206,
    65.881,       228,
   65.9013,       236,
   65.9215,       252,
   65.9417,       245,
   65.9619,       229,
   65.9821,       224,
   66.0023,       230,
   66.0226,       211,
   66.0428,       233,
    66.063,       243,
   66.0832,       241,
   66.1034,       210,
   66.1237,       246,
   66.1439,       228,
   66.1641,       236,
   66.1843,       200,
   66.2045,       218,
   66.2248,       208,
    66.245,       206,
   66.2652,       223,
   66.2854,       203,
   66.3056,       212,
   66.3258,       236,
   66.3461,       227,
   66.3663,       228,
   66.3865,       253,
   66.4067,       245,
   66.4269,       245,
   66.4472,       296,
   66.4674,       279,
   66.4876,       285,
   66.5078,       292,
    66.528,       334,
   66.5483,       385,
   66.5685,       449,
   66.5887,       480,
   66.6089,       557,
   66.6291,       650,
   66.6493,       780,
   66.6696,       985,
   66.6898,      1036,
     66.71,      1110,
   66.7302,      1003,
   66.7504,       845,
   66.7707,       832,
   66.7909,       804,
   66.8111,       724,
   66.8313,       731,
   66.8515,       755,
   66.8718,       718,
    66.892,       697,
   66.9122,       691,
   66.9324,       656,
   66.9526,       669,
   66.9728,       688,
   66.9931,       757,
   67.0133,       893,
   67.0335,       911,
   67.0537,       927,
   67.0739,       894,
   67.0942,       842,
   67.1144,       760,
   67.1346,       729,
   67.1548,       623,
    67.175,       614,
   67.1953,       646,
   67.2155,       557,
   67.2357,       521,
   67.2559,       514,
   67.2761,       413,
   67.2963,       362,
   67.3166,       351,
   67.3368,       280,
    67.357,       281,
   67.3772,       242,
   67.3974,       226,
   67.4177,       201,
   67.4379,       214,
   67.4581,       233,
   67.4783,       192,
   67.4985,       198,
   67.5188,       202,
    67.539,       193,
   67.5592,       179,
   67.5794,       202,
   67.5996,       192,
   67.6198,       191,
   67.6401,       191,
   67.6603,       180,
   67.6805,       146,
   67.7007,       149,
   67.7209,       207,
   67.7412,       160,
   67.7614,       184,
   67.7816,       177,
   67.8018,       185,
    67.822,       162,
   67.8423,       199,
   67.8625,       177,
   67.8827,       166,
   67.9029,       196,
   67.9231,       196,
   67.9433,       167,
   67.9636,       179,
   67.9838,       222,
    68.004,       187,
   68.0242,       218,
   68.0444,       251,
   68.0647,       181,
   68.0849,       182,
   68.1051,       192,
   68.1253,       194,
   68.1455,       181,
   68.1658,       208,
    68.186,       223,
   68.2062,       206,
   68.2264,       215,
   68.2466,       180,
   68.2668,       224,
   68.2871,       162,
   68.3073,       209,
   68.3275,       184,
   68.3477,       171,
   68.3679,       179,
   68.3882,       173,
   68.4084,       168,
   68.4286,       166,
   68.4488,       179,
    68.469,       167,
   68.4893,       221,
   68.5095,       178,
   68.5297,       177,
   68.5499,       201,
   68.5701,       213,
   68.5903,       185,
   68.6106,       184,
   68.6308,       193,
    68.651,       188,
   68.6712,       241,
   68.6914,       249,
   68.7117,       241,
   68.7319,       278,
   68.7521,       292,
   68.7723,       313,
   68.7925,       319,
   68.8128,       311,
    68.833,       284,
   68.8532,       298,
   68.8734,       279,
   68.8936,       291,
   68.9138,       327,
   68.9341,       329,
   68.9543,       319,
   68.9745,       325,
   68.9947,       300,
   69.0149,       290,
   69.0352,       244,
   69.0554,       259,
   69.0756,       211,
   69.0958,       217,
    69.116,       203,
   69.1363,       173,
   69.1565,       203,
   69.1767,       220,
   69.1969,       198,
   69.2171,       189,
   69.2373,       186,
   69.2576,       189,
   69.2778,       180,
    69.298,       178,
   69.3182,       173,
   69.3384,       190,
   69.3587,       186,
   69.3789,       173,
   69.3991,       169,
   69.4193,       188,
   69.4395,       179,
   69.4598,       165,
     69.48,       156,
   69.5002,       180,
   69.5204,       157,
   69.5406,       168,
   69.5608,       176,
   69.5811,       140,
   69.6013,       167,
   69.6215,       167,
   69.6417,       154,
   69.6619,       171,
   69.6822,       159,
   69.7024,       174,
   69.7226,       157,
   69.7428,       147,
    69.763,       154,
   69.7833,       166,
   69.8035,       162,
   69.8237,       144,
   69.8439,       144,
   69.8641,       149,
   69.8843,       165,
   69.9046,       177,
   69.9248,       177,
    69.945,       162,
   69.9652,       165,
   69.9854,       146,
   70.0057,       166,
