;RAW4.00
[RawHeader]
Date=06/21/2023
EstimatedTotalTime=890.609
FurtherDQLReading=0
HardwareIndicator=65519
MeasuredTotalTime=890.609
MeasurementFlag=1
NumberOfMeasuredRanges=1
NumberOfRanges=1
Time=22:08:54

[VarInfo]
Type=USER
Flags=0
Value=Bruker Service

[VarInfo]
Type=SAMPLEID
Flags=0
Value=Commander Sample ID

[VarInfo]
Type=COMMENT
Flags=0
Value=

[VarInfo]
Type=UTF
Flags=0
Value=

[VarInfo]
Type=CREATOR
Flags=0
Value=BrmlToV4Converter

[VarInfo]
Type=CREATOR_VERSION
Flags=0
Value=7.3.1.0

[HardwareConfiguration]
AbsorptionFactor=9999
ActivateAbsorber=0
Alpha1=1.78897
Alpha2=1.79285
AlphaAverage=1.79026
AlphaRatio=0.5
Analyzer=0
Anode=Co
AntiScatteringSlit=9999
BeamOpticsFlags=0
Beta=1.62079
BetaRelativeIntensity=0
DeactivateAbsorber=0
DetectorSlit=9999
DivergenceSlit=1
GoniometerControl=0
GoniometerDiameter=282
GoniometerModel=256
GoniometerStage=7
Monochromator=0
NearSampleSlit=9999
PrimarySollerSlit=9999
SampleChanger=0
SecondSollerSlit=9999
SynchronousAxis=0
ThinFilmAttachment=9999
WaveUnit=A

[RangeHeader]
ActuallyUsedLambda=1.79026
AdditionalDetectorMask=257
DataRecordLength=4
DelayTime=0
DisplayPlaneNumber=0
EstimatedScanTime=891
ExtraParametersMask=0
GeneratorCurrent=10
GeneratorVoltage=30
Increment=0.0303281
Increment3=0
NumberOfCompletedData=2797
NumberOfCounts=1
NumberOfDetectors=0
NumberOfDrives=3
NumberOfEncoderDrives=0
NumberOfMeasuredData=2797
NumberOfVaryingParameters=0
RangeStartTime=0
RotationSpeed=0
ScanMode=1
ScanType=Locked Coupled
SimulatedMeasConditions=0
SlitChangerIn=0
SmootingWidth=0
Start=5.00234
Steps=2797
SynchronousRotation=0
Time=49.5

[VarInfo]
Type=PSD_DISCRIM
Flags=0
Value=0.11;0.25

[PSD]
ActualTwoTheta=9999
FirstUsedChannel=0
FixedPSD=0
PSDOpening=5.00414
PSDType=5

[Drive]
DriveFlags=1
DriveName=2Theta
DriveNumber=2
DriveOffset=0
OffsetIndex=0
OscillationAmplitude=0
OscillationSpeed=0
StartPosition=5.00234

[Drive]
DriveFlags=1
DriveName=Theta
DriveNumber=1
DriveOffset=0
OffsetIndex=0
OscillationAmplitude=0
OscillationSpeed=0
StartPosition=2.50117

[Drive]
DriveFlags=1
DriveName=Phi
DriveNumber=3
DriveOffset=0
OffsetIndex=0
OscillationAmplitude=0
OscillationSpeed=0
StartPosition=0

[Data]
     Angle,       PSD,
   5.00234,      2193,
   5.03267,      2195,
     5.063,      2010,
   5.09333,      2060,
   5.12365,      1917,
   5.15398,      2001,
   5.18431,      1959,
   5.21464,      1799,
   5.24497,      1991,
   5.27529,      1810,
   5.30562,      1892,
   5.33595,      1784,
   5.36628,      1732,
   5.39661,      1694,
   5.42694,      1683,
   5.45726,      1699,
   5.48759,      1607,
   5.51792,      1599,
   5.54825,      1540,
   5.57858,      1592,
    5.6089,      1528,
   5.63923,      1500,
   5.66956,      1446,
   5.69989,      1430,
   5.73022,      1457,
   5.76055,      1422,
   5.79087,      1462,
    5.8212,      1328,
   5.85153,      1236,
   5.88186,      1345,
   5.91219,      1292,
   5.94251,      1325,
   5.97284,      1193,
   6.00317,      1194,
    6.0335,      1213,
   6.06383,      1215,
   6.09415,      1203,
   6.12448,      1102,
   6.15481,      1190,
   6.18514,      1147,
   6.21547,      1103,
    6.2458,      1089,
   6.27612,      1105,
   6.30645,      1086,
   6.33678,      1120,
   6.36711,      1034,
   6.39744,       982,
   6.42776,      1008,
   6.45809,      1006,
   6.48842,       993,
   6.51875,      1017,
   6.54908,       992,
    6.5794,       906,
   6.60973,       953,
   6.64006,       917,
   6.67039,       935,
   6.70072,       891,
   6.73105,       878,
   6.76137,       902,
    6.7917,       855,
   6.82203,       889,
   6.85236,       850,
   6.88269,       826,
   6.91301,       768,
   6.94334,       794,
   6.97367,       839,
     7.004,       808,
   7.03433,       784,
   7.06466,       755,
   7.09498,       806,
   7.12531,       758,
   7.15564,       743,
   7.18597,       733,
    7.2163,       768,
   7.24662,       770,
   7.27695,       694,
   7.30728,       739,
   7.33761,       638,
   7.36794,       734,
   7.39826,       701,
   7.42859,       667,
   7.45892,       673,
   7.48925,       677,
   7.51958,       624,
   7.54991,       649,
   7.58023,       623,
   7.61056,       613,
   7.64089,       593,
   7.67122,       603,
   7.70155,       636,
   7.73187,       628,
    7.7622,       668,
   7.79253,       605,
   7.82286,       591,
   7.85319,       561,
   7.88352,       635,
   7.91384,       565,
   7.94417,       550,
    7.9745,       560,
   8.00483,       504,
   8.03516,       517,
   8.06548,       582,
   8.09581,       519,
   8.12614,       585,
   8.15647,       507,
    8.1868,       514,
   8.21712,       529,
   8.24745,       494,
   8.27778,       455,
   8.30811,       496,
   8.33844,       536,
   8.36877,       468,
   8.39909,       459,
   8.42942,       498,
   8.45975,       467,
   8.49008,       473,
   8.52041,       479,
   8.55073,       433,
   8.58106,       442,
   8.61139,       428,
   8.64172,       399,
   8.67205,       447,
   8.70237,       429,
    8.7327,       420,
   8.76303,       400,
   8.79336,       384,
   8.82369,       385,
   8.85402,       465,
   8.88434,       414,
   8.91467,       373,
     8.945,       395,
   8.97533,       404,
   9.00566,       410,
   9.03598,       416,
   9.06631,       399,
   9.09664,       396,
   9.12697,       402,
    9.1573,       400,
   9.18763,       401,
   9.21795,       401,
   9.24828,       398,
   9.27861,       385,
   9.30894,       367,
   9.33927,       334,
   9.36959,       373,
   9.39992,       339,
   9.43025,       367,
   9.46058,       350,
   9.49091,       331,
   9.52123,       378,
   9.55156,       344,
   9.58189,       343,
   9.61222,       347,
   9.64255,       352,
   9.67288,       349,
    9.7032,       342,
   9.73353,       309,
   9.76386,       345,
   9.79419,       311,
   9.82452,       331,
   9.85484,       302,
   9.88517,       332,
    9.9155,       320,
   9.94583,       356,
   9.97616,       332,
   10.0065,       319,
   10.0368,       337,
   10.0671,       323,
   10.0975,       305,
   10.1278,       332,
   10.1581,       324,
   10.1885,       345,
   10.2188,       309,
   10.2491,       338,
   10.2794,       311,
   10.3098,       339,
   10.3401,       316,
   10.3704,       354,
   10.4008,       320,
   10.4311,       332,
   10.4614,       341,
   10.4917,       286,
   10.5221,       325,
   10.5524,       282,
   10.5827,       305,
    10.613,       332,
   10.6434,       328,
   10.6737,       357,
    10.704,       349,
   10.7344,       298,
   10.7647,       306,
    10.795,       320,
   10.8253,       330,
   10.8557,       317,
    10.886,       314,
   10.9163,       309,
   10.9467,       331,
    10.977,       291,
   11.0073,       314,
   11.0376,       327,
    11.068,       302,
   11.0983,       315,
   11.1286,       295,
    11.159,       295,
   11.1893,       322,
   11.2196,       306,
   11.2499,       278,
   11.2803,       272,
   11.3106,       330,
   11.3409,       308,
   11.3713,       309,
   11.4016,       322,
   11.4319,       305,
   11.4622,       284,
   11.4926,       283,
   11.5229,       328,
   11.5532,       323,
   11.5835,       282,
   11.6139,       319,
   11.6442,       338,
   11.6745,       314,
   11.7049,       285,
   11.7352,       310,
   11.7655,       295,
   11.7958,       275,
   11.8262,       306,
   11.8565,       292,
   11.8868,       291,
   11.9172,       293,
   11.9475,       303,
   11.9778,       323,
   12.0081,       298,
   12.0385,       315,
   12.0688,       295,
   12.0991,       290,
   12.1295,       262,
   12.1598,       297,
   12.1901,       333,
   12.2204,       295,
   12.2508,       325,
   12.2811,       328,
   12.3114,       298,
   12.3418,       317,
   12.3721,       284,
   12.4024,       318,
   12.4327,       313,
   12.4631,       289,
   12.4934,       290,
   12.5237,       291,
    12.554,       299,
   12.5844,       262,
   12.6147,       277,
    12.645,       306,
   12.6754,       290,
   12.7057,       278,
    12.736,       322,
   12.7663,       311,
   12.7967,       287,
    12.827,       308,
   12.8573,       267,
   12.8877,       286,
    12.918,       277,
   12.9483,       298,
   12.9786,       310,
    13.009,       253,
   13.0393,       324,
   13.0696,       305,
      13.1,       268,
   13.1303,       311,
   13.1606,       302,
   13.1909,       274,
   13.2213,       307,
   13.2516,       302,
   13.2819,       277,
   13.3123,       338,
   13.3426,       291,
   13.3729,       284,
   13.4032,       294,
   13.4336,       266,
   13.4639,       330,
   13.4942,       301,
   13.5245,       283,
   13.5549,       311,
   13.5852,       305,
   13.6155,       281,
   13.6459,       286,
   13.6762,       303,
   13.7065,       278,
   13.7368,       277,
   13.7672,       295,
   13.7975,       284,
   13.8278,       281,
   13.8582,       276,
   13.8885,       269,
   13.9188,       286,
   13.9491,       304,
   13.9795,       268,
   14.0098,       325,
   14.0401,       290,
   14.0705,       285,
   14.1008,       260,
   14.1311,       308,
   14.1614,       314,
   14.1918,       275,
   14.2221,       274,
   14.2524,       294,
   14.2828,       306,
   14.3131,       308,
   14.3434,       292,
   14.3737,       277,
   14.4041,       299,
   14.4344,       266,
   14.4647,       281,
   14.4951,       276,
   14.5254,       281,
   14.5557,       290,
    14.586,       241,
   14.6164,       246,
   14.6467,       287,
    14.677,       267,
   14.7073,       294,
   14.7377,       288,
    14.768,       258,
   14.7983,       276,
   14.8287,       266,
    14.859,       280,
   14.8893,       294,
   14.9196,       264,
     14.95,       295,
   14.9803,       294,
   15.0106,       256,
    15.041,       242,
   15.0713,       281,
   15.1016,       272,
   15.1319,       307,
   15.1623,       284,
   15.1926,       291,
   15.2229,       289,
   15.2533,       278,
   15.2836,       310,
   15.3139,       247,
   15.3442,       280,
   15.3746,       276,
   15.4049,       257,
   15.4352,       307,
   15.4656,       272,
   15.4959,       280,
   15.5262,       274,
   15.5565,       286,
   15.5869,       279,
   15.6172,       256,
   15.6475,       270,
   15.6778,       244,
   15.7082,       290,
   15.7385,       282,
   15.7688,       260,
   15.7992,       284,
   15.8295,       265,
   15.8598,       297,
   15.8901,       285,
   15.9205,       269,
   15.9508,       287,
   15.9811,       305,
   16.0115,       257,
   16.0418,       238,
   16.0721,       266,
   16.1024,       268,
   16.1328,       280,
   16.1631,       300,
   16.1934,       304,
   16.2238,       286,
   16.2541,       289,
   16.2844,       282,
   16.3147,       254,
   16.3451,       264,
   16.3754,       263,
   16.4057,       275,
   16.4361,       246,
   16.4664,       255,
   16.4967,       275,
    16.527,       277,
   16.5574,       274,
   16.5877,       255,
    16.618,       258,
   16.6483,       227,
   16.6787,       271,
    16.709,       290,
   16.7393,       270,
   16.7697,       259,
      16.8,       293,
   16.8303,       259,
   16.8606,       244,
    16.891,       253,
   16.9213,       262,
   16.9516,       237,
    16.982,       238,
   17.0123,       260,
   17.0426,       281,
   17.0729,       261,
   17.1033,       254,
   17.1336,       258,
   17.1639,       253,
   17.1943,       268,
   17.2246,       259,
   17.2549,       249,
   17.2852,       261,
   17.3156,       253,
   17.3459,       282,
   17.3762,       255,
   17.4066,       295,
   17.4369,       232,
   17.4672,       279,
   17.4975,       276,
   17.5279,       259,
   17.5582,       271,
   17.5885,       248,
   17.6188,       253,
   17.6492,       279,
   17.6795,       249,
   17.7098,       293,
   17.7402,       265,
   17.7705,       292,
   17.8008,       242,
   17.8311,       253,
   17.8615,       265,
   17.8918,       269,
   17.9221,       272,
   17.9525,       273,
   17.9828,       276,
   18.0131,       246,
   18.0434,       272,
   18.0738,       284,
   18.1041,       236,
   18.1344,       287,
   18.1648,       245,
   18.1951,       273,
   18.2254,       268,
   18.2557,       269,
   18.2861,       251,
   18.3164,       287,
   18.3467,       262,
   18.3771,       253,
   18.4074,       264,
   18.4377,       260,
    18.468,       223,
   18.4984,       225,
   18.5287,       276,
    18.559,       253,
   18.5893,       260,
   18.6197,       292,
     18.65,       273,
   18.6803,       287,
   18.7107,       276,
    18.741,       248,
   18.7713,       282,
   18.8016,       254,
    18.832,       234,
   18.8623,       211,
   18.8926,       222,
    18.923,       222,
   18.9533,       242,
   18.9836,       234,
   19.0139,       226,
   19.0443,       229,
   19.0746,       240,
   19.1049,       270,
   19.1353,       235,
   19.1656,       252,
   19.1959,       254,
   19.2262,       243,
   19.2566,       247,
   19.2869,       243,
   19.3172,       291,
   19.3476,       248,
   19.3779,       234,
   19.4082,       242,
   19.4385,       271,
   19.4689,       254,
   19.4992,       267,
   19.5295,       251,
   19.5599,       281,
   19.5902,       304,
   19.6205,       274,
   19.6508,       244,
   19.6812,       245,
   19.7115,       239,
   19.7418,       236,
   19.7721,       244,
   19.8025,       260,
   19.8328,       250,
   19.8631,       258,
   19.8935,       253,
   19.9238,       258,
   19.9541,       256,
   19.9844,       253,
   20.0148,       247,
   20.0451,       286,
   20.0754,       273,
   20.1058,       246,
   20.1361,       243,
   20.1664,       277,
   20.1967,       261,
   20.2271,       211,
   20.2574,       235,
   20.2877,       258,
   20.3181,       259,
   20.3484,       260,
   20.3787,       252,
    20.409,       265,
   20.4394,       259,
   20.4697,       249,
      20.5,       262,
   20.5304,       253,
   20.5607,       264,
    20.591,       228,
   20.6213,       225,
   20.6517,       234,
    20.682,       278,
   20.7123,       263,
   20.7426,       232,
    20.773,       238,
   20.8033,       252,
   20.8336,       216,
    20.864,       282,
   20.8943,       256,
   20.9246,       252,
   20.9549,       238,
   20.9853,       244,
   21.0156,       271,
   21.0459,       244,
   21.0763,       288,
   21.1066,       248,
   21.1369,       222,
   21.1672,       224,
   21.1976,       254,
   21.2279,       236,
   21.2582,       287,
   21.2886,       241,
   21.3189,       225,
   21.3492,       259,
   21.3795,       229,
   21.4099,       267,
   21.4402,       242,
   21.4705,       241,
   21.5009,       232,
   21.5312,       243,
   21.5615,       247,
   21.5918,       254,
   21.6222,       267,
   21.6525,       250,
   21.6828,       238,
   21.7131,       230,
   21.7435,       268,
   21.7738,       249,
   21.8041,       214,
   21.8345,       251,
   21.8648,       247,
   21.8951,       250,
   21.9254,       238,
   21.9558,       259,
   21.9861,       235,
   22.0164,       247,
   22.0468,       261,
   22.0771,       242,
   22.1074,       265,
   22.1377,       269,
   22.1681,       293,
   22.1984,       299,
   22.2287,       286,
   22.2591,       252,
   22.2894,       253,
   22.3197,       256,
     22.35,       242,
   22.3804,       259,
   22.4107,       256,
    22.441,       255,
   22.4714,       240,
   22.5017,       265,
    22.532,       239,
   22.5623,       249,
   22.5927,       249,
    22.623,       246,
   22.6533,       238,
   22.6836,       202,
    22.714,       228,
   22.7443,       213,
   22.7746,       258,
    22.805,       254,
   22.8353,       205,
   22.8656,       200,
   22.8959,       238,
   22.9263,       232,
   22.9566,       247,
   22.9869,       214,
   23.0173,       257,
   23.0476,       256,
   23.0779,       231,
   23.1082,       254,
   23.1386,       257,
   23.1689,       258,
   23.1992,       238,
   23.2296,       234,
   23.2599,       239,
   23.2902,       204,
   23.3205,       224,
   23.3509,       224,
   23.3812,       207,
   23.4115,       214,
   23.4419,       237,
   23.4722,       222,
   23.5025,       236,
   23.5328,       256,
   23.5632,       241,
   23.5935,       233,
   23.6238,       239,
   23.6541,       244,
   23.6845,       226,
   23.7148,       231,
   23.7451,       219,
   23.7755,       235,
   23.8058,       218,
   23.8361,       201,
   23.8664,       240,
   23.8968,       226,
   23.9271,       185,
   23.9574,       216,
   23.9878,       228,
   24.0181,       247,
   24.0484,       218,
   24.0787,       229,
   24.1091,       247,
   24.1394,       244,
   24.1697,       239,
   24.2001,       214,
   24.2304,       228,
   24.2607,       253,
    24.291,       225,
   24.3214,       220,
   24.3517,       245,
    24.382,       241,
   24.4124,       215,
   24.4427,       203,
    24.473,       228,
   24.5033,       219,
   24.5337,       221,
    24.564,       225,
   24.5943,       224,
   24.6246,       230,
    24.655,       219,
   24.6853,       214,
   24.7156,       239,
    24.746,       201,
   24.7763,       236,
   24.8066,       230,
   24.8369,       226,
   24.8673,       223,
   24.8976,       235,
   24.9279,       215,
   24.9583,       197,
   24.9886,       177,
   25.0189,       225,
   25.0492,       241,
   25.0796,       219,
   25.1099,       251,
   25.1402,       216,
   25.1706,       215,
   25.2009,       200,
   25.2312,       220,
   25.2615,       212,
   25.2919,       219,
   25.3222,       203,
   25.3525,       217,
   25.3829,       235,
   25.4132,       210,
   25.4435,       243,
   25.4738,       228,
   25.5042,       203,
   25.5345,       211,
   25.5648,       199,
   25.5952,       207,
   25.6255,       224,
   25.6558,       210,
   25.6861,       206,
   25.7165,       218,
   25.7468,       184,
   25.7771,       179,
   25.8074,       225,
   25.8378,       223,
   25.8681,       202,
   25.8984,       202,
   25.9288,       204,
   25.9591,       228,
   25.9894,       213,
   26.0197,       226,
   26.0501,       219,
   26.0804,       202,
   26.1107,       222,
   26.1411,       200,
   26.1714,       214,
   26.2017,       202,
    26.232,       225,
   26.2624,       240,
   26.2927,       251,
    26.323,       208,
   26.3534,       201,
   26.3837,       204,
    26.414,       204,
   26.4443,       180,
   26.4747,       205,
    26.505,       206,
   26.5353,       222,
   26.5657,       183,
    26.596,       184,
   26.6263,       214,
   26.6566,       209,
    26.687,       220,
   26.7173,       216,
   26.7476,       218,
   26.7779,       216,
   26.8083,       223,
   26.8386,       235,
   26.8689,       219,
   26.8993,       255,
   26.9296,       301,
   26.9599,       411,
   26.9902,       386,
   27.0206,       271,
   27.0509,       220,
   27.0812,       234,
   27.1116,       210,
   27.1419,       207,
   27.1722,       239,
   27.2025,       231,
   27.2329,       234,
   27.2632,       207,
   27.2935,       208,
   27.3239,       221,
   27.3542,       242,
   27.3845,       217,
   27.4148,       182,
   27.4452,       199,
   27.4755,       188,
   27.5058,       233,
   27.5362,       199,
   27.5665,       211,
   27.5968,       200,
   27.6271,       219,
   27.6575,       214,
   27.6878,       215,
   27.7181,       211,
   27.7484,       221,
   27.7788,       203,
   27.8091,       205,
   27.8394,       207,
   27.8698,       217,
   27.9001,       202,
   27.9304,       211,
   27.9607,       229,
   27.9911,       199,
   28.0214,       222,
   28.0517,       196,
   28.0821,       223,
   28.1124,       186,
   28.1427,       207,
    28.173,       220,
   28.2034,       188,
   28.2337,       185,
    28.264,       221,
   28.2944,       192,
   28.3247,       213,
    28.355,       209,
   28.3853,       200,
   28.4157,       195,
    28.446,       180,
   28.4763,       212,
   28.5067,       198,
    28.537,       210,
   28.5673,       212,
   28.5976,       211,
    28.628,       218,
   28.6583,       194,
   28.6886,       219,
   28.7189,       205,
   28.7493,       205,
   28.7796,       216,
   28.8099,       199,
   28.8403,       196,
   28.8706,       196,
   28.9009,       193,
   28.9312,       208,
   28.9616,       191,
   28.9919,       208,
   29.0222,       176,
   29.0526,       217,
   29.0829,       213,
   29.1132,       249,
   29.1435,       248,
   29.1739,       270,
   29.2042,       208,
   29.2345,       235,
   29.2649,       242,
   29.2952,       263,
   29.3255,       292,
   29.3558,       296,
   29.3862,       268,
   29.4165,       288,
   29.4468,       331,
   29.4772,       280,
   29.5075,       346,
   29.5378,       328,
   29.5681,       338,
   29.5985,       393,
   29.6288,       399,
   29.6591,       508,
   29.6894,       714,
   29.7198,      1035,
   29.7501,      2331,
   29.7804,      5905,
   29.8108,     11098,
   29.8411,      9103,
   29.8714,      6580,
   29.9017,      4446,
   29.9321,      1489,
   29.9624,       655,
   29.9927,       447,
   30.0231,       435,
   30.0534,       398,
   30.0837,       387,
    30.114,       355,
   30.1444,       302,
   30.1747,       297,
    30.205,       253,
   30.2354,       251,
   30.2657,       222,
    30.296,       208,
   30.3263,       221,
   30.3567,       248,
    30.387,       189,
   30.4173,       226,
   30.4477,       229,
    30.478,       212,
   30.5083,       218,
   30.5386,       200,
    30.569,       187,
   30.5993,       197,
   30.6296,       205,
     30.66,       199,
   30.6903,       192,
   30.7206,       180,
   30.7509,       215,
   30.7813,       192,
   30.8116,       181,
   30.8419,       204,
   30.8722,       184,
   30.9026,       214,
   30.9329,       199,
   30.9632,       180,
   30.9936,       209,
   31.0239,       199,
   31.0542,       202,
   31.0845,       194,
   31.1149,       181,
   31.1452,       176,
   31.1755,       172,
   31.2059,       181,
   31.2362,       175,
   31.2665,       203,
   31.2968,       163,
   31.3272,       194,
   31.3575,       186,
   31.3878,       181,
   31.4182,       173,
   31.4485,       174,
   31.4788,       167,
   31.5091,       183,
   31.5395,       195,
   31.5698,       192,
   31.6001,       184,
   31.6305,       167,
   31.6608,       191,
   31.6911,       169,
   31.7214,       171,
   31.7518,       186,
   31.7821,       187,
   31.8124,       200,
   31.8427,       172,
   31.8731,       203,
   31.9034,       198,
   31.9337,       198,
   31.9641,       182,
   31.9944,       187,
   32.0247,       180,
    32.055,       168,
   32.0854,       207,
   32.1157,       187,
    32.146,       165,
   32.1764,       132,
   32.2067,       193,
    32.237,       174,
   32.2673,       160,
   32.2977,       189,
    32.328,       217,
   32.3583,       220,
   32.3887,       181,
    32.419,       176,
   32.4493,       173,
   32.4796,       168,
     32.51,       198,
   32.5403,       179,
   32.5706,       180,
    32.601,       152,
   32.6313,       194,
   32.6616,       182,
   32.6919,       159,
   32.7223,       168,
   32.7526,       171,
   32.7829,       191,
   32.8132,       174,
   32.8436,       178,
   32.8739,       169,
   32.9042,       189,
   32.9346,       170,
   32.9649,       185,
   32.9952,       170,
   33.0255,       178,
   33.0559,       156,
   33.0862,       184,
   33.1165,       166,
   33.1469,       194,
   33.1772,       187,
   33.2075,       172,
   33.2378,       171,
   33.2682,       186,
   33.2985,       163,
   33.3288,       147,
   33.3592,       176,
   33.3895,       172,
   33.4198,       153,
   33.4501,       199,
   33.4805,       163,
   33.5108,       167,
   33.5411,       160,
   33.5715,       182,
   33.6018,       175,
   33.6321,       166,
   33.6624,       164,
   33.6928,       177,
   33.7231,       165,
   33.7534,       185,
   33.7837,       167,
   33.8141,       185,
   33.8444,       188,
   33.8747,       149,
   33.9051,       165,
   33.9354,       171,
   33.9657,       177,
    33.996,       150,
   34.0264,       158,
   34.0567,       167,
    34.087,       158,
   34.1174,       181,
   34.1477,       164,
    34.178,       162,
   34.2083,       171,
   34.2387,       143,
    34.269,       158,
   34.2993,       166,
   34.3297,       192,
     34.36,       160,
   34.3903,       164,
   34.4206,       160,
    34.451,       171,
   34.4813,       169,
   34.5116,       174,
    34.542,       147,
   34.5723,       152,
   34.6026,       161,
   34.6329,       148,
   34.6633,       152,
   34.6936,       173,
   34.7239,       180,
   34.7542,       151,
   34.7846,       162,
   34.8149,       165,
   34.8452,       171,
   34.8756,       160,
   34.9059,       163,
   34.9362,       164,
   34.9665,       154,
   34.9969,       171,
   35.0272,       161,
   35.0575,       174,
   35.0879,       165,
   35.1182,       164,
   35.1485,       178,
   35.1788,       176,
   35.2092,       139,
   35.2395,       149,
   35.2698,       164,
   35.3002,       152,
   35.3305,       132,
   35.3608,       152,
   35.3911,       137,
   35.4215,       178,
   35.4518,       159,
   35.4821,       185,
   35.5125,       164,
   35.5428,       168,
   35.5731,       171,
   35.6034,       162,
   35.6338,       164,
   35.6641,       155,
   35.6944,       159,
   35.7248,       159,
   35.7551,       151,
   35.7854,       161,
   35.8157,       154,
   35.8461,       158,
   35.8764,       144,
   35.9067,       162,
    35.937,       162,
   35.9674,       136,
   35.9977,       161,
    36.028,       176,
   36.0584,       169,
   36.0887,       173,
    36.119,       165,
   36.1493,       147,
   36.1797,       150,
     36.21,       163,
   36.2403,       153,
   36.2707,       149,
    36.301,       178,
   36.3313,       138,
   36.3616,       164,
    36.392,       145,
   36.4223,       172,
   36.4526,       148,
    36.483,       198,
   36.5133,       184,
   36.5436,       185,
   36.5739,       206,
   36.6043,       171,
   36.6346,       161,
   36.6649,       163,
   36.6953,       141,
   36.7256,       151,
   36.7559,       160,
   36.7862,       172,
   36.8166,       159,
   36.8469,       151,
   36.8772,       160,
   36.9075,       165,
   36.9379,       167,
   36.9682,       213,
   36.9985,       251,
   37.0289,       364,
   37.0592,       526,
   37.0895,       426,
   37.1198,       266,
   37.1502,       216,
   37.1805,       177,
   37.2108,       200,
   37.2412,       170,
   37.2715,       184,
   37.3018,       132,
   37.3321,       159,
   37.3625,       142,
   37.3928,       144,
   37.4231,       140,
   37.4535,       162,
   37.4838,       164,
   37.5141,       158,
   37.5444,       165,
   37.5748,       164,
   37.6051,       139,
   37.6354,       131,
   37.6658,       149,
   37.6961,       149,
   37.7264,       160,
   37.7567,       156,
   37.7871,       134,
   37.8174,       156,
   37.8477,       153,
    37.878,       139,
   37.9084,       117,
   37.9387,       148,
    37.969,       169,
   37.9994,       157,
   38.0297,       146,
     38.06,       158,
   38.0903,       165,
   38.1207,       142,
    38.151,       141,
   38.1813,       165,
   38.2117,       180,
    38.242,       142,
   38.2723,       142,
   38.3026,       131,
    38.333,       149,
   38.3633,       153,
   38.3936,       147,
    38.424,       133,
   38.4543,       154,
   38.4846,       135,
   38.5149,       140,
   38.5453,       149,
   38.5756,       135,
   38.6059,       151,
   38.6363,       133,
   38.6666,       129,
   38.6969,       126,
   38.7272,       136,
   38.7576,       142,
   38.7879,       144,
   38.8182,       165,
   38.8485,       157,
   38.8789,       146,
   38.9092,       160,
   38.9395,       140,
   38.9699,       156,
   39.0002,       114,
   39.0305,       140,
   39.0608,       114,
   39.0912,       135,
   39.1215,       138,
   39.1518,       152,
   39.1822,       132,
   39.2125,       108,
   39.2428,       123,
   39.2731,       134,
   39.3035,       150,
   39.3338,       117,
   39.3641,       144,
   39.3945,       123,
   39.4248,       131,
   39.4551,       128,
   39.4854,       140,
   39.5158,       145,
   39.5461,       139,
   39.5764,       154,
   39.6068,       133,
   39.6371,       145,
   39.6674,       128,
   39.6977,       152,
   39.7281,       143,
   39.7584,       164,
   39.7887,       173,
    39.819,       246,
   39.8494,       262,
   39.8797,       238,
     39.91,       206,
   39.9404,       165,
   39.9707,       142,
    40.001,       183,
   40.0313,       178,
   40.0617,       150,
    40.092,       182,
   40.1223,       181,
   40.1527,       177,
    40.183,       183,
   40.2133,       181,
   40.2436,       168,
    40.274,       157,
   40.3043,       179,
   40.3346,       171,
    40.365,       162,
   40.3953,       177,
   40.4256,       190,
   40.4559,       198,
   40.4863,       208,
   40.5166,       226,
   40.5469,       227,
   40.5773,       248,
   40.6076,       260,
   40.6379,       301,
   40.6682,       327,
   40.6986,       321,
   40.7289,       392,
   40.7592,       392,
   40.7895,       407,
   40.8199,       496,
   40.8502,       649,
   40.8805,       683,
   40.9109,       689,
   40.9412,       856,
   40.9715,      1346,
   41.0018,      3340,
   41.0322,      9644,
   41.0625,     18753,
   41.0928,     14007,
   41.1232,      8329,
   41.1535,     10272,
   41.1838,      7049,
   41.2141,      2453,
   41.2445,      1039,
   41.2748,       722,
   41.3051,       593,
   41.3355,       509,
   41.3658,       462,
   41.3961,       391,
   41.4264,       355,
   41.4568,       294,
   41.4871,       274,
   41.5174,       269,
   41.5478,       210,
   41.5781,       215,
   41.6084,       230,
   41.6387,       175,
   41.6691,       187,
   41.6994,       191,
   41.7297,       177,
   41.7601,       171,
   41.7904,       157,
   41.8207,       183,
    41.851,       178,
   41.8814,       175,
   41.9117,       157,
    41.942,       168,
   41.9723,       184,
   42.0027,       148,
    42.033,       156,
   42.0633,       164,
   42.0937,       148,
    42.124,       169,
   42.1543,       149,
   42.1846,       155,
    42.215,       168,
   42.2453,       166,
   42.2756,       167,
    42.306,       151,
   42.3363,       163,
   42.3666,       147,
   42.3969,       161,
   42.4273,       132,
   42.4576,       152,
   42.4879,       169,
   42.5183,       173,
   42.5486,       167,
   42.5789,       159,
   42.6092,       153,
   42.6396,       140,
   42.6699,       161,
   42.7002,       171,
   42.7306,       166,
   42.7609,       153,
   42.7912,       135,
   42.8215,       156,
   42.8519,       142,
   42.8822,       141,
   42.9125,       143,
   42.9428,       150,
   42.9732,       155,
   43.0035,       160,
   43.0338,       181,
   43.0642,       258,
   43.0945,       269,
   43.1248,       257,
   43.1551,       216,
   43.1855,       215,
   43.2158,       202,
   43.2461,       183,
   43.2765,       161,
   43.3068,       162,
   43.3371,       166,
   43.3674,       142,
   43.3978,       146,
   43.4281,       143,
   43.4584,       152,
   43.4888,       146,
   43.5191,       153,
   43.5494,       157,
   43.5797,       141,
   43.6101,       182,
   43.6404,       159,
   43.6707,       176,
   43.7011,       177,
   43.7314,       181,
   43.7617,       188,
    43.792,       189,
   43.8224,       200,
   43.8527,       214,
    43.883,       218,
   43.9133,       247,
   43.9437,       274,
    43.974,       285,
   44.0043,       314,
   44.0347,       321,
    44.065,       343,
   44.0953,       565,
   44.1256,      1394,
    44.156,      3966,
   44.1863,      5923,
   44.2166,      3441,
    44.247,      2343,
   44.2773,      3126,
   44.3076,      2164,
   44.3379,       836,
   44.3683,       405,
   44.3986,       304,
   44.4289,       261,
   44.4593,       245,
   44.4896,       236,
   44.5199,       228,
   44.5502,       200,
   44.5806,       184,
   44.6109,       186,
   44.6412,       178,
   44.6716,       174,
   44.7019,       153,
   44.7322,       186,
   44.7625,       163,
   44.7929,       160,
   44.8232,       158,
   44.8535,       163,
   44.8838,       133,
   44.9142,       121,
   44.9445,       155,
   44.9748,       157,
   45.0052,       156,
   45.0355,       137,
   45.0658,       152,
   45.0961,       153,
   45.1265,       135,
   45.1568,       156,
   45.1871,       163,
   45.2175,       144,
   45.2478,       160,
   45.2781,       139,
   45.3084,       151,
   45.3388,       150,
   45.3691,       143,
   45.3994,       164,
   45.4298,       146,
   45.4601,       142,
   45.4904,       138,
   45.5207,       144,
   45.5511,       133,
   45.5814,       125,
   45.6117,       157,
   45.6421,       157,
   45.6724,       180,
   45.7027,       262,
    45.733,       418,
   45.7634,       402,
   45.7937,       288,
    45.824,       192,
   45.8543,       183,
   45.8847,       184,
    45.915,       161,
   45.9453,       166,
   45.9757,       145,
    46.006,       150,
   46.0363,       140,
   46.0666,       150,
    46.097,       150,
   46.1273,       150,
   46.1576,       149,
    46.188,       122,
   46.2183,       123,
   46.2486,       134,
   46.2789,       133,
   46.3093,       134,
   46.3396,       136,
   46.3699,       134,
   46.4003,       123,
   46.4306,       127,
   46.4609,       112,
   46.4912,       125,
   46.5216,       146,
   46.5519,       114,
   46.5822,       135,
   46.6126,       133,
   46.6429,       135,
   46.6732,       123,
   46.7035,       159,
   46.7339,       146,
   46.7642,       143,
   46.7945,       154,
   46.8249,       137,
   46.8552,       147,
   46.8855,       118,
   46.9158,       132,
   46.9462,       126,
   46.9765,       130,
   47.0068,       143,
   47.0371,       111,
   47.0675,       137,
   47.0978,       122,
   47.1281,       137,
   47.1585,       124,
   47.1888,       142,
   47.2191,       112,
   47.2494,       113,
   47.2798,       132,
   47.3101,       131,
   47.3404,       157,
   47.3708,       124,
   47.4011,       130,
   47.4314,       129,
   47.4617,       128,
   47.4921,       135,
   47.5224,       108,
   47.5527,       134,
   47.5831,       128,
   47.6134,       125,
   47.6437,       136,
    47.674,       118,
   47.7044,       115,
   47.7347,       141,
    47.765,       128,
   47.7954,       119,
   47.8257,       121,
    47.856,       128,
   47.8863,       132,
   47.9167,       133,
    47.947,       130,
   47.9773,       152,
   48.0076,       129,
    48.038,       121,
   48.0683,       118,
   48.0986,       123,
    48.129,       120,
   48.1593,       117,
   48.1896,       131,
   48.2199,       122,
   48.2503,       114,
   48.2806,       137,
   48.3109,       143,
   48.3413,       112,
   48.3716,       124,
   48.4019,       139,
   48.4322,       129,
   48.4626,       134,
   48.4929,       137,
   48.5232,       143,
   48.5536,       139,
   48.5839,       125,
   48.6142,       151,
   48.6445,       122,
   48.6749,       121,
   48.7052,       132,
   48.7355,       159,
   48.7659,       246,
   48.7962,       388,
   48.8265,       354,
   48.8568,       238,
   48.8872,       250,
   48.9175,       278,
   48.9478,       191,
   48.9781,       155,
   49.0085,       136,
   49.0388,       131,
   49.0691,       114,
   49.0995,       123,
   49.1298,       142,
   49.1601,       128,
   49.1904,       129,
   49.2208,       114,
   49.2511,       134,
   49.2814,       100,
   49.3118,       126,
   49.3421,       123,
   49.3724,       139,
   49.4027,       136,
   49.4331,       156,
   49.4634,       138,
   49.4937,       132,
   49.5241,       143,
   49.5544,       142,
   49.5847,       136,
    49.615,       128,
   49.6454,       130,
   49.6757,       135,
    49.706,       165,
   49.7364,       142,
   49.7667,       146,
    49.797,       148,
   49.8273,       134,
   49.8577,       160,
    49.888,       151,
   49.9183,       156,
   49.9486,       143,
    49.979,       118,
   50.0093,       154,
   50.0396,       142,
     50.07,       156,
   50.1003,       172,
   50.1306,       144,
   50.1609,       171,
   50.1913,       176,
   50.2216,       165,
   50.2519,       165,
   50.2823,       173,
   50.3126,       216,
   50.3429,       224,
   50.3732,       229,
   50.4036,       277,
   50.4339,       293,
   50.4642,       301,
   50.4946,       383,
   50.5249,       446,
   50.5552,       456,
   50.5855,       537,
   50.6159,       533,
   50.6462,       523,
   50.6765,       625,
   50.7069,       956,
   50.7372,      2042,
   50.7675,      5795,
   50.7978,     14469,
   50.8282,     14915,
   50.8585,      6797,
   50.8888,      5273,
   50.9191,      8200,
   50.9495,      7100,
   50.9798,      2858,
   51.0101,      1193,
   51.0405,       721,
   51.0708,       550,
   51.1011,       457,
   51.1314,       409,
   51.1618,       367,
   51.1921,       283,
   51.2224,       254,
   51.2528,       250,
   51.2831,       211,
   51.3134,       183,
   51.3437,       181,
   51.3741,       162,
   51.4044,       153,
   51.4347,       147,
   51.4651,       157,
   51.4954,       175,
   51.5257,       157,
    51.556,       144,
   51.5864,       143,
   51.6167,       145,
    51.647,       124,
   51.6774,       116,
   51.7077,       140,
    51.738,       139,
   51.7683,       138,
   51.7987,       116,
    51.829,       133,
   51.8593,       144,
   51.8897,       156,
     51.92,       124,
   51.9503,       151,
   51.9806,       130,
    52.011,       132,
   52.0413,       140,
   52.0716,       123,
   52.1019,       127,
   52.1323,       130,
   52.1626,       112,
   52.1929,       135,
   52.2233,       123,
   52.2536,       139,
   52.2839,       126,
   52.3142,       128,
   52.3446,       112,
   52.3749,       121,
   52.4052,       126,
   52.4356,       139,
   52.4659,       129,
   52.4962,       130,
   52.5265,       155,
   52.5569,       183,
   52.5872,       180,
   52.6175,       151,
   52.6479,       145,
   52.6782,       147,
   52.7085,       158,
   52.7388,       131,
   52.7692,       136,
   52.7995,       126,
   52.8298,       124,
   52.8602,       134,
   52.8905,       139,
   52.9208,       118,
   52.9511,       117,
   52.9815,       102,
   53.0118,       113,
   53.0421,       118,
   53.0724,       111,
   53.1028,       128,
   53.1331,       106,
   53.1634,       117,
   53.1938,       129,
   53.2241,       122,
   53.2544,       122,
   53.2847,       132,
   53.3151,       105,
   53.3454,       112,
   53.3757,       104,
   53.4061,       129,
   53.4364,       125,
   53.4667,        99,
    53.497,       116,
   53.5274,       108,
   53.5577,       115,
    53.588,       127,
   53.6184,       114,
   53.6487,       104,
    53.679,       116,
   53.7093,       110,
   53.7397,       128,
     53.77,       122,
   53.8003,       119,
   53.8307,       139,
    53.861,       110,
   53.8913,       121,
   53.9216,       117,
    53.952,       112,
   53.9823,       102,
   54.0126,       107,
   54.0429,       114,
   54.0733,       121,
   54.1036,       127,
   54.1339,       150,
   54.1643,       214,
   54.1946,       284,
   54.2249,       236,
   54.2552,       150,
   54.2856,       167,
   54.3159,       197,
   54.3462,       169,
   54.3766,       128,
   54.4069,       108,
   54.4372,       117,
   54.4675,       116,
   54.4979,       115,
   54.5282,       123,
   54.5585,       106,
   54.5889,       108,
   54.6192,       102,
   54.6495,        98,
   54.6798,       106,
   54.7102,       111,
   54.7405,       103,
   54.7708,       119,
   54.8012,       117,
   54.8315,       115,
   54.8618,       123,
   54.8921,       105,
   54.9225,       129,
   54.9528,       109,
   54.9831,        98,
   55.0134,       108,
   55.0438,        98,
   55.0741,       102,
   55.1044,       113,
   55.1348,       121,
   55.1651,       120,
   55.1954,       116,
   55.2257,       104,
   55.2561,        94,
   55.2864,       127,
   55.3167,       127,
   55.3471,       131,
   55.3774,       117,
   55.4077,       125,
    55.438,       105,
   55.4684,       123,
   55.4987,       200,
    55.529,       229,
   55.5594,       170,
   55.5897,       143,
     55.62,       130,
   55.6503,       127,
   55.6807,       120,
    55.711,       105,
   55.7413,       120,
   55.7717,       103,
    55.802,       111,
   55.8323,       106,
   55.8626,        96,
    55.893,        94,
   55.9233,       102,
   55.9536,        98,
   55.9839,       106,
   56.0143,       105,
   56.0446,       100,
   56.0749,        92,
   56.1053,       104,
   56.1356,       110,
   56.1659,       113,
   56.1962,       101,
   56.2266,       109,
   56.2569,        91,
   56.2872,        91,
   56.3176,        95,
   56.3479,       106,
   56.3782,        93,
   56.4085,        88,
   56.4389,        97,
   56.4692,       107,
   56.4995,        97,
   56.5299,       110,
   56.5602,        98,
   56.5905,        89,
   56.6208,       107,
   56.6512,        97,
   56.6815,        99,
   56.7118,       108,
   56.7422,       102,
   56.7725,       113,
   56.8028,       111,
   56.8331,       107,
   56.8635,        93,
   56.8938,       105,
   56.9241,        94,
   56.9544,        91,
   56.9848,       110,
   57.0151,       117,
   57.0454,        93,
   57.0758,        88,
   57.1061,        99,
   57.1364,        89,
   57.1667,        85,
   57.1971,        89,
   57.2274,       107,
   57.2577,       101,
   57.2881,       128,
   57.3184,        96,
   57.3487,        98,
    57.379,        91,
   57.4094,       119,
   57.4397,        94,
     57.47,       110,
   57.5004,       116,
   57.5307,        99,
    57.561,        93,
   57.5913,        88,
   57.6217,        92,
    57.652,        86,
   57.6823,       102,
   57.7127,        78,
    57.743,        99,
   57.7733,        94,
   57.8036,       104,
    57.834,        94,
   57.8643,       103,
   57.8946,        92,
    57.925,       101,
   57.9553,       101,
   57.9856,        86,
   58.0159,       102,
   58.0463,       102,
   58.0766,        81,
   58.1069,        89,
   58.1372,        91,
   58.1676,        96,
   58.1979,        86,
   58.2282,        97,
   58.2586,        75,
   58.2889,        98,
   58.3192,        98,
   58.3495,        89,
   58.3799,        95,
   58.4102,       104,
   58.4405,        88,
   58.4709,        90,
   58.5012,        93,
   58.5315,        94,
   58.5618,        92,
   58.5922,        89,
   58.6225,        92,
   58.6528,       101,
   58.6832,        96,
   58.7135,        95,
   58.7438,        99,
   58.7741,        84,
   58.8045,        94,
   58.8348,        93,
   58.8651,       109,
   58.8955,       103,
   58.9258,        97,
   58.9561,        94,
   58.9864,        84,
   59.0168,       103,
   59.0471,        78,
   59.0774,        93,
   59.1077,        93,
   59.1381,        95,
   59.1684,        92,
   59.1987,        81,
   59.2291,       103,
   59.2594,        95,
   59.2897,        86,
     59.32,        98,
   59.3504,        75,
   59.3807,       101,
    59.411,        91,
   59.4414,       106,
   59.4717,       108,
    59.502,        86,
   59.5323,       104,
   59.5627,        89,
    59.593,        83,
   59.6233,        99,
   59.6537,        96,
    59.684,       104,
   59.7143,       113,
   59.7446,       100,
    59.775,        98,
   59.8053,        94,
   59.8356,        83,
    59.866,        98,
   59.8963,        95,
   59.9266,        80,
   59.9569,        88,
   59.9873,        94,
   60.0176,        86,
   60.0479,       107,
   60.0782,        92,
   60.1086,        97,
   60.1389,        88,
   60.1692,       115,
   60.1996,       106,
   60.2299,       102,
   60.2602,       113,
   60.2905,       108,
   60.3209,       118,
   60.3512,       104,
   60.3815,       105,
   60.4119,       111,
   60.4422,       112,
   60.4725,       102,
   60.5028,        94,
   60.5332,       103,
   60.5635,       112,
   60.5938,       105,
   60.6242,       117,
   60.6545,       100,
   60.6848,       119,
   60.7151,       162,
   60.7455,       218,
   60.7758,       327,
   60.8061,       388,
   60.8365,       301,
   60.8668,       200,
   60.8971,       165,
   60.9274,       164,
   60.9578,       127,
   60.9881,       115,
   61.0184,       124,
   61.0487,       111,
   61.0791,       106,
   61.1094,        96,
   61.1397,       107,
   61.1701,       120,
   61.2004,       103,
   61.2307,        84,
    61.261,       133,
   61.2914,       112,
   61.3217,       118,
    61.352,       103,
   61.3824,       128,
   61.4127,       133,
    61.443,       172,
   61.4733,       163,
   61.5037,       193,
    61.534,       231,
   61.5643,       251,
   61.5947,       259,
    61.625,       235,
   61.6553,       264,
   61.6856,       282,
    61.716,       318,
   61.7463,       369,
   61.7766,       595,
    61.807,      1254,
   61.8373,      3370,
   61.8676,      6596,
   61.8979,      5815,
   61.9283,      2687,
   61.9586,      1661,
   61.9889,      2349,
   62.0192,      3531,
   62.0496,      2845,
   62.0799,      1244,
   62.1102,       572,
   62.1406,       383,
   62.1709,       290,
   62.2012,       288,
   62.2315,       210,
   62.2619,       183,
   62.2922,       167,
   62.3225,       157,
   62.3529,       141,
   62.3832,       121,
   62.4135,       138,
   62.4438,       106,
   62.4742,       119,
   62.5045,       119,
   62.5348,       114,
   62.5652,       101,
   62.5955,       105,
   62.6258,        91,
   62.6561,       105,
   62.6865,       109,
   62.7168,        85,
   62.7471,       103,
   62.7775,       110,
   62.8078,        86,
   62.8381,       121,
   62.8684,        97,
   62.8988,       109,
   62.9291,        99,
   62.9594,        92,
   62.9898,        97,
   63.0201,        90,
   63.0504,        81,
   63.0807,        99,
   63.1111,        91,
   63.1414,       101,
   63.1717,       102,
    63.202,        97,
   63.2324,       104,
   63.2627,        91,
    63.293,        96,
   63.3234,       104,
   63.3537,        85,
    63.384,        78,
   63.4143,        94,
   63.4447,       112,
    63.475,        97,
   63.5053,        97,
   63.5357,        87,
    63.566,        99,
   63.5963,       108,
   63.6266,        91,
    63.657,       103,
   63.6873,        89,
   63.7176,        69,
    63.748,        75,
   63.7783,       104,
   63.8086,        80,
   63.8389,        82,
   63.8693,        88,
   63.8996,        74,
   63.9299,        76,
   63.9603,        84,
   63.9906,        91,
   64.0209,        89,
   64.0512,        93,
   64.0816,        89,
   64.1119,        99,
   64.1422,       100,
   64.1725,        93,
   64.2029,        80,
   64.2332,        82,
   64.2635,        78,
   64.2939,       104,
   64.3242,        91,
   64.3545,        87,
   64.3848,        82,
   64.4152,        79,
   64.4455,        92,
   64.4758,        99,
   64.5062,        74,
   64.5365,        80,
   64.5668,        81,
   64.5971,        81,
   64.6275,        89,
   64.6578,        92,
   64.6881,        98,
   64.7185,        96,
   64.7488,        93,
   64.7791,        90,
   64.8094,        80,
   64.8398,        82,
   64.8701,       108,
   64.9004,       103,
   64.9308,       106,
   64.9611,        79,
   64.9914,        98,
   65.0217,        95,
   65.0521,        85,
   65.0824,        73,
   65.1127,        88,
    65.143,        84,
   65.1734,        95,
   65.2037,       102,
    65.234,        96,
   65.2644,        89,
   65.2947,        86,
    65.325,        80,
   65.3553,        90,
   65.3857,        82,
    65.416,        85,
   65.4463,        68,
   65.4767,        82,
    65.507,        93,
   65.5373,        93,
   65.5676,        82,
    65.598,        91,
   65.6283,        90,
   65.6586,        85,
    65.689,        88,
   65.7193,        99,
   65.7496,        87,
   65.7799,       102,
   65.8103,       103,
   65.8406,       109,
   65.8709,        88,
   65.9013,        88,
   65.9316,        86,
   65.9619,        92,
   65.9922,        95,
   66.0226,       106,
   66.0529,       113,
   66.0832,        88,
   66.1135,       109,
   66.1439,       102,
   66.1742,       100,
   66.2045,       106,
   66.2349,        93,
   66.2652,       104,
   66.2955,        94,
   66.3258,       112,
   66.3562,       108,
   66.3865,        99,
   66.4168,        95,
   66.4472,       102,
   66.4775,        97,
   66.5078,        89,
   66.5381,       113,
   66.5685,       105,
   66.5988,       102,
   66.6291,        80,
   66.6595,       103,
   66.6898,       100,
   66.7201,       104,
   66.7504,       110,
   66.7808,       110,
   66.8111,       105,
   66.8414,       103,
   66.8718,       110,
   66.9021,       103,
   66.9324,        92,
   66.9627,        93,
   66.9931,       100,
   67.0234,       134,
   67.0537,       121,
    67.084,       106,
   67.1144,       117,
   67.1447,        99,
    67.175,       131,
   67.2054,       111,
   67.2357,       146,
    67.266,       132,
   67.2963,       156,
   67.3267,       146,
    67.357,       145,
   67.3873,       179,
   67.4177,       210,
    67.448,       208,
   67.4783,       272,
   67.5086,       317,
    67.539,       385,
   67.5693,       441,
   67.5996,       474,
     67.63,       407,
   67.6603,       434,
   67.6906,       484,
   67.7209,       528,
   67.7513,       665,
   67.7816,       882,
   67.8119,      1526,
   67.8423,      3404,
   67.8726,      8792,
   67.9029,     15034,
   67.9332,     12137,
   67.9636,      5422,
   67.9939,      3202,
   68.0242,      3983,
   68.0546,      6738,
   68.0849,      7498,
   68.1152,      4246,
   68.1455,      1940,
   68.1759,      1025,
   68.2062,       723,
   68.2365,       540,
   68.2668,       454,
   68.2972,       384,
   68.3275,       314,
   68.3578,       291,
   68.3882,       223,
   68.4185,       215,
   68.4488,       205,
   68.4791,       174,
   68.5095,       131,
   68.5398,       144,
   68.5701,       142,
   68.6005,       141,
   68.6308,       119,
   68.6611,       106,
   68.6914,       115,
   68.7218,       129,
   68.7521,       111,
   68.7824,       110,
   68.8128,       113,
   68.8431,       128,
   68.8734,       104,
   68.9037,       104,
   68.9341,        86,
   68.9644,       116,
   68.9947,       107,
   69.0251,       110,
   69.0554,        94,
   69.0857,       106,
    69.116,       112,
   69.1464,       107,
   69.1767,        95,
    69.207,       104,
   69.2373,        95,
   69.2677,        89,
    69.298,        95,
   69.3283,        86,
   69.3587,        86,
    69.389,       101,
   69.4193,        86,
   69.4496,        78,
     69.48,        85,
   69.5103,       101,
   69.5406,       102,
    69.571,       100,
   69.6013,        89,
   69.6316,        94,
   69.6619,        94,
   69.6923,        97,
   69.7226,        89,
   69.7529,        81,
   69.7833,        97,
   69.8136,        76,
   69.8439,       100,
   69.8742,       105,
   69.9046,       103,
   69.9349,        89,
   69.9652,        98,
   69.9956,        84,
   70.0259,        79,
   70.0562,        92,
   70.0865,        94,
   70.1169,       111,
   70.1472,       108,
   70.1775,       103,
   70.2078,       156,
   70.2382,       139,
   70.2685,       113,
   70.2988,        99,
   70.3292,       126,
   70.3595,       133,
   70.3898,       133,
   70.4201,       130,
   70.4505,       162,
   70.4808,       180,
   70.5111,       153,
   70.5415,       145,
   70.5718,       141,
   70.6021,       142,
   70.6324,       234,
   70.6628,       360,
   70.6931,       379,
   70.7234,       273,
   70.7538,       182,
   70.7841,       132,
   70.8144,       165,
   70.8447,       238,
   70.8751,       236,
   70.9054,       129,
   70.9357,       103,
   70.9661,       104,
   70.9964,       117,
   71.0267,        95,
    71.057,       101,
   71.0874,        85,
   71.1177,       109,
    71.148,        95,
   71.1783,        89,
   71.2087,        90,
    71.239,        88,
   71.2693,        88,
   71.2997,        92,
     71.33,        87,
   71.3603,        90,
   71.3906,        90,
    71.421,        87,
   71.4513,        91,
   71.4816,        69,
    71.512,        83,
   71.5423,        91,
   71.5726,        94,
   71.6029,        95,
   71.6333,        99,
   71.6636,        98,
   71.6939,       107,
   71.7243,        93,
   71.7546,       101,
   71.7849,       104,
   71.8152,       108,
   71.8456,       101,
   71.8759,       107,
   71.9062,       102,
   71.9366,        86,
   71.9669,        98,
   71.9972,        84,
   72.0275,       113,
   72.0579,        86,
   72.0882,        98,
   72.1185,       126,
   72.1488,       123,
   72.1792,       106,
   72.2095,       149,
   72.2398,       163,
   72.2702,       206,
   72.3005,       251,
   72.3308,       277,
   72.3611,       400,
   72.3915,       538,
   72.4218,       446,
   72.4521,       323,
   72.4825,       278,
   72.5128,       419,
   72.5431,       886,
   72.5734,      1624,
   72.6038,      1677,
   72.6341,       963,
   72.6644,       466,
   72.6948,       361,
   72.7251,       461,
   72.7554,       833,
   72.7857,       760,
   72.8161,       517,
   72.8464,       280,
   72.8767,       190,
   72.9071,       143,
   72.9374,       139,
   72.9677,       108,
    72.998,        98,
   73.0284,       106,
   73.0587,        96,
    73.089,        93,
   73.1193,        94,
   73.1497,       112,
     73.18,        84,
   73.2103,        87,
   73.2407,        81,
    73.271,        88,
   73.3013,        99,
   73.3316,        85,
    73.362,        93,
   73.3923,        81,
   73.4226,        88,
    73.453,        89,
   73.4833,        88,
   73.5136,        67,
   73.5439,        79,
   73.5743,        94,
   73.6046,        97,
   73.6349,        81,
   73.6653,        78,
   73.6956,        97,
   73.7259,        79,
   73.7562,        79,
   73.7866,        75,
   73.8169,        71,
   73.8472,        91,
   73.8776,        77,
   73.9079,        74,
   73.9382,        82,
   73.9685,        78,
   73.9989,        65,
   74.0292,        88,
   74.0595,        80,
   74.0899,        91,
   74.1202,        79,
   74.1505,        94,
   74.1808,        71,
   74.2112,        77,
   74.2415,        81,
   74.2718,        78,
   74.3021,        79,
   74.3325,        71,
   74.3628,        86,
   74.3931,        89,
   74.4235,        64,
   74.4538,        69,
   74.4841,        81,
   74.5144,        84,
   74.5448,        81,
   74.5751,        79,
   74.6054,        83,
   74.6358,        85,
   74.6661,        76,
   74.6964,        81,
   74.7267,        89,
   74.7571,        84,
   74.7874,        82,
   74.8177,        82,
   74.8481,        69,
   74.8784,        81,
   74.9087,        82,
    74.939,        78,
   74.9694,        90,
   74.9997,        82,
     75.03,        80,
   75.0604,        73,
   75.0907,        77,
    75.121,        87,
   75.1513,        70,
   75.1817,        91,
    75.212,        74,
   75.2423,        72,
   75.2726,        78,
    75.303,        83,
   75.3333,        92,
   75.3636,        75,
    75.394,        61,
   75.4243,        80,
   75.4546,        71,
   75.4849,        74,
   75.5153,        67,
   75.5456,        69,
   75.5759,        80,
   75.6063,        90,
   75.6366,        82,
   75.6669,        65,
   75.6972,        81,
   75.7276,        91,
   75.7579,        79,
   75.7882,        81,
   75.8186,        82,
   75.8489,        80,
   75.8792,        79,
   75.9095,        88,
   75.9399,        88,
   75.9702,       105,
   76.0005,        72,
   76.0309,        87,
   76.0612,        64,
   76.0915,        93,
   76.1218,        71,
   76.1522,        74,
   76.1825,        83,
   76.2128,        83,
   76.2431,        78,
   76.2735,        86,
   76.3038,        82,
   76.3341,       101,
   76.3645,        84,
   76.3948,        78,
   76.4251,        80,
   76.4554,        78,
   76.4858,        67,
   76.5161,        70,
   76.5464,        76,
   76.5768,        82,
   76.6071,        80,
   76.6374,        77,
   76.6677,        79,
   76.6981,        68,
   76.7284,        78,
   76.7587,        94,
   76.7891,        70,
   76.8194,        78,
   76.8497,        97,
     76.88,        92,
   76.9104,        76,
   76.9407,        68,
    76.971,        90,
   77.0014,        85,
   77.0317,        78,
    77.062,        90,
   77.0923,        86,
   77.1227,        87,
    77.153,        91,
   77.1833,        74,
   77.2136,        85,
    77.244,        78,
   77.2743,        79,
   77.3046,        97,
    77.335,        96,
   77.3653,        79,
   77.3956,        67,
   77.4259,       102,
   77.4563,        98,
   77.4866,       129,
   77.5169,       150,
   77.5473,       127,
   77.5776,       117,
   77.6079,       102,
   77.6382,       100,
   77.6686,       108,
   77.6989,        94,
   77.7292,       127,
   77.7596,       111,
   77.7899,       107,
   77.8202,        89,
   77.8505,        81,
   77.8809,        79,
   77.9112,        86,
   77.9415,        67,
   77.9719,        82,
   78.0022,        89,
   78.0325,        96,
   78.0628,        81,
   78.0932,        97,
   78.1235,        91,
   78.1538,        79,
   78.1841,        84,
   78.2145,        92,
   78.2448,        94,
   78.2751,        78,
   78.3055,        79,
   78.3358,        88,
   78.3661,        85,
   78.3964,        82,
   78.4268,        86,
   78.4571,        95,
   78.4874,        95,
   78.5178,        97,
   78.5481,       110,
   78.5784,        92,
   78.6087,       124,
   78.6391,       129,
   78.6694,       144,
   78.6997,       145,
   78.7301,       169,
   78.7604,       171,
   78.7907,       163,
    78.821,       173,
   78.8514,       173,
   78.8817,       201,
    78.912,       219,
   78.9424,       241,
   78.9727,       305,
    79.003,       396,
   79.0333,       743,
   79.0637,      1596,
    79.094,      3649,
   79.1243,      4783,
   79.1547,      3166,
    79.185,      1630,
   79.2153,       963,
   79.2456,       868,
    79.276,      1308,
   79.3063,      2191,
   79.3366,      2313,
   79.3669,      1405,
   79.3973,       693,
   79.4276,       442,
   79.4579,       285,
   79.4883,       249,
   79.5186,       188,
   79.5489,       184,
   79.5792,       154,
   79.6096,       136,
   79.6399,       139,
   79.6702,        97,
   79.7006,       107,
   79.7309,       107,
   79.7612,       102,
   79.7915,       104,
   79.8219,       112,
   79.8522,       102,
   79.8825,       102,
   79.9129,       103,
   79.9432,        97,
   79.9735,       106,
   80.0038,       102,
   80.0342,       120,
   80.0645,       104,
   80.0948,        94,
   80.1252,        86,
   80.1555,        84,
   80.1858,        87,
   80.2161,        82,
   80.2465,        81,
   80.2768,        84,
   80.3071,        99,
   80.3374,        99,
   80.3678,        98,
   80.3981,        89,
   80.4284,        99,
   80.4588,        81,
   80.4891,        93,
   80.5194,        97,
   80.5497,       109,
   80.5801,        82,
   80.6104,        86,
   80.6407,       117,
   80.6711,       120,
   80.7014,       121,
   80.7317,       136,
    80.762,       160,
   80.7924,       170,
   80.8227,       182,
    80.853,       211,
   80.8834,       184,
   80.9137,       213,
    80.944,       163,
   80.9743,       224,
   81.0047,       220,
    81.035,       235,
   81.0653,       255,
   81.0957,       319,
    81.126,       429,
   81.1563,       680,
   81.1866,      1310,
    81.217,      3097,
   81.2473,      5869,
   81.2776,      5463,
   81.3079,      3182,
   81.3383,      1610,
   81.3686,      1101,
   81.3989,      1158,
   81.4293,      1885,
   81.4596,      3020,
   81.4899,      2805,
   81.5202,      1673,
   81.5506,       834,
   81.5809,       496,
   81.6112,       385,
   81.6416,       322,
   81.6719,       291,
   81.7022,       244,
   81.7325,       211,
   81.7629,       173,
   81.7932,       166,
   81.8235,       147,
   81.8539,       131,
   81.8842,       132,
   81.9145,       123,
   81.9448,       113,
   81.9752,       119,
   82.0055,       120,
   82.0358,       106,
   82.0662,       123,
   82.0965,       125,
   82.1268,       119,
   82.1571,        95,
   82.1875,       100,
   82.2178,        94,
   82.2481,        83,
   82.2784,       107,
   82.3088,        99,
   82.3391,        84,
   82.3694,        83,
   82.3998,        91,
   82.4301,       104,
   82.4604,        91,
   82.4907,        93,
   82.5211,        94,
   82.5514,        93,
   82.5817,        81,
   82.6121,        84,
   82.6424,        97,
   82.6727,        88,
    82.703,        71,
   82.7334,        71,
   82.7637,        85,
    82.794,        71,
   82.8244,        86,
   82.8547,        83,
    82.885,        88,
   82.9153,        78,
   82.9457,        87,
    82.976,        88,
   83.0063,        86,
   83.0367,        71,
    83.067,        76,
   83.0973,        72,
   83.1276,        91,
    83.158,        85,
   83.1883,        79,
   83.2186,        91,
   83.2489,        84,
   83.2793,        79,
   83.3096,        76,
   83.3399,        71,
   83.3703,        73,
   83.4006,        84,
   83.4309,        73,
   83.4612,        70,
   83.4916,        84,
   83.5219,        91,
   83.5522,        92,
   83.5826,        84,
   83.6129,        75,
   83.6432,        87,
   83.6735,        85,
   83.7039,        80,
   83.7342,        91,
   83.7645,        87,
   83.7949,        91,
   83.8252,        78,
   83.8555,        77,
   83.8858,        89,
   83.9162,        86,
   83.9465,        92,
   83.9768,       107,
   84.0072,       140,
   84.0375,       233,
   84.0678,       217,
   84.0981,       157,
   84.1285,       132,
   84.1588,        90,
   84.1891,        92,
   84.2195,       139,
   84.2498,       145,
   84.2801,       135,
   84.3104,       131,
   84.3408,       119,
   84.3711,       100,
   84.4014,        72,
   84.4317,        80,
   84.4621,        85,
   84.4924,        96,
   84.5227,        75,
   84.5531,        69,
   84.5834,        71,
   84.6137,        70,
    84.644,        75,
   84.6744,        79,
   84.7047,        74,
    84.735,        73,
   84.7654,        66,
   84.7957,        92,
    84.826,        86,
   84.8563,        69,
   84.8867,        71,
    84.917,        71,
   84.9473,        78,
   84.9777,        62,
    85.008,        75,
   85.0383,        80,
   85.0686,        71,
    85.099,        79,
   85.1293,        71,
   85.1596,        71,
     85.19,        87,
   85.2203,        79,
   85.2506,        74,
   85.2809,        80,
   85.3113,        78,
   85.3416,        80,
   85.3719,        77,
   85.4022,        73,
   85.4326,        79,
   85.4629,        78,
   85.4932,        71,
   85.5236,        80,
   85.5539,        91,
   85.5842,        87,
   85.6145,        78,
   85.6449,        83,
   85.6752,        70,
   85.7055,        68,
   85.7359,        78,
   85.7662,        82,
   85.7965,        73,
   85.8268,        87,
   85.8572,        95,
   85.8875,        86,
   85.9178,        93,
   85.9482,        78,
   85.9785,        94,
   86.0088,        73,
   86.0391,        79,
   86.0695,        86,
   86.0998,        65,
   86.1301,        86,
   86.1605,        87,
   86.1908,        83,
   86.2211,        74,
   86.2514,        67,
   86.2818,        85,
   86.3121,        65,
   86.3424,        62,
   86.3727,        93,
   86.4031,        83,
   86.4334,        82,
   86.4637,        74,
   86.4941,        78,
   86.5244,        69,
   86.5547,        82,
    86.585,        84,
   86.6154,        68,
   86.6457,        71,
    86.676,        86,
   86.7064,        62,
   86.7367,        72,
    86.767,        76,
   86.7973,        71,
   86.8277,        70,
    86.858,        76,
   86.8883,        76,
   86.9187,        65,
    86.949,        60,
   86.9793,        72,
   87.0096,        71,
     87.04,        69,
   87.0703,        80,
   87.1006,        70,
    87.131,        70,
   87.1613,        67,
   87.1916,        71,
   87.2219,        69,
   87.2523,        77,
   87.2826,        64,
   87.3129,        68,
   87.3432,        80,
   87.3736,        70,
   87.4039,        70,
   87.4342,        73,
   87.4646,        86,
   87.4949,        63,
   87.5252,        68,
   87.5555,        65,
   87.5859,        67,
   87.6162,        69,
   87.6465,        58,
   87.6769,        60,
   87.7072,        80,
   87.7375,        81,
   87.7678,        67,
   87.7982,        85,
   87.8285,        61,
   87.8588,        67,
   87.8892,        64,
   87.9195,        74,
   87.9498,        65,
   87.9801,        72,
   88.0105,        74,
   88.0408,        60,
   88.0711,        87,
   88.1015,        77,
   88.1318,        71,
   88.1621,        68,
   88.1924,        75,
   88.2228,        69,
   88.2531,        75,
   88.2834,        83,
   88.3137,        66,
   88.3441,        72,
   88.3744,        81,
   88.4047,        73,
   88.4351,        74,
   88.4654,        72,
   88.4957,        81,
    88.526,        74,
   88.5564,        74,
   88.5867,        83,
    88.617,        82,
   88.6474,        73,
   88.6777,        63,
    88.708,        75,
   88.7383,        83,
   88.7687,        70,
    88.799,        80,
   88.8293,        96,
   88.8597,        82,
     88.89,        83,
   88.9203,        94,
   88.9506,       101,
    88.981,       148,
   89.0113,       219,
   89.0416,       282,
    89.072,       252,
   89.1023,       183,
   89.1326,       149,
   89.1629,       124,
   89.1933,       106,
   89.2236,       140,
   89.2539,       141,
   89.2842,       178,
   89.3146,       172,
   89.3449,       134,
   89.3752,        86,
   89.4056,        81,
   89.4359,        79,
   89.4662,        83,
   89.4965,        91,
   89.5269,        83,
   89.5572,        79,
   89.5875,        78,
   89.6179,        85,
   89.6482,        98,
   89.6785,        81,
   89.7088,        70,
   89.7392,        89,
   89.7695,        81,
   89.7998,        75,
