;RAW4.00
[RawHeader]
Date=10/22/2019
EstimatedTotalTime=1635.67
FurtherDQLReading=0
HardwareIndicator=65519
MeasuredTotalTime=1635.67
MeasurementFlag=1
NumberOfMeasuredRanges=1
NumberOfRanges=1
Time=17:45:37

[VarInfo]
Type=USER
Flags=0
Value=Bruker Service

[VarInfo]
Type=SAMPLEID
Flags=0
Value=Commander Sample ID

[VarInfo]
Type=COMMENT
Flags=0
Value=

[VarInfo]
Type=UTF
Flags=0
Value=

[VarInfo]
Type=CREATOR
Flags=0
Value=BrmlToV4Converter

[VarInfo]
Type=CREATOR_VERSION
Flags=0
Value=7.3.0.0

[HardwareConfiguration]
AbsorptionFactor=9999
ActivateAbsorber=0
Alpha1=1.78897
Alpha2=1.79285
AlphaAverage=1.79026
AlphaRatio=0.5
Analyzer=0
Anode=Co
AntiScatteringSlit=9999
BeamOpticsFlags=0
Beta=1.62079
BetaRelativeIntensity=0
DeactivateAbsorber=0
DetectorSlit=9999
DivergenceSlit=1
GoniometerControl=0
GoniometerDiameter=282
GoniometerModel=256
GoniometerStage=7
Monochromator=0
NearSampleSlit=9999
PrimarySollerSlit=9999
SampleChanger=0
SecondSollerSlit=9999
SynchronousAxis=0
ThinFilmAttachment=9999
WaveUnit=A

[RangeHeader]
ActuallyUsedLambda=1.79026
AdditionalDetectorMask=257
DataRecordLength=4
DelayTime=0
DisplayPlaneNumber=0
EstimatedScanTime=1636
ExtraParametersMask=0
GeneratorCurrent=10
GeneratorVoltage=30
Increment=0.0202188
Increment3=0
NumberOfCompletedData=2971
NumberOfCounts=1
NumberOfDetectors=0
NumberOfDrives=2
NumberOfEncoderDrives=0
NumberOfMeasuredData=2971
NumberOfVaryingParameters=0
RangeStartTime=0
RotationSpeed=1
ScanMode=1
ScanType=Locked Coupled
SimulatedMeasConditions=0
SlitChangerIn=0
SmootingWidth=0
Start=10.0023
Steps=2971
SynchronousRotation=0
Time=96

[VarInfo]
Type=PSD_DISCRIM
Flags=0
Value=0.11;0.25

[PSD]
ActualTwoTheta=9999
FirstUsedChannel=0
FixedPSD=0
PSDOpening=5.823
PSDType=5

[Drive]
DriveFlags=1
DriveName=2Theta
DriveNumber=2
DriveOffset=0
OffsetIndex=0
OscillationAmplitude=0
OscillationSpeed=0
StartPosition=10.0023

[Drive]
DriveFlags=1
DriveName=Theta
DriveNumber=1
DriveOffset=0
OffsetIndex=0
OscillationAmplitude=0
OscillationSpeed=0
StartPosition=5.00117

[Data]
     Angle,       PSD,
   10.0023,       808,
   10.0226,       869,
   10.0428,       836,
    10.063,       854,
   10.0832,       895,
   10.1034,       803,
   10.1237,       841,
   10.1439,       818,
   10.1641,       836,
   10.1843,       788,
   10.2045,       855,
   10.2247,       743,
    10.245,       825,
   10.2652,       765,
   10.2854,       790,
   10.3056,       810,
   10.3258,       770,
   10.3461,       798,
   10.3663,       775,
   10.3865,       738,
   10.4067,       755,
   10.4269,       861,
   10.4472,       826,
   10.4674,       775,
   10.4876,       781,
   10.5078,       821,
    10.528,       846,
   10.5482,       781,
   10.5685,       820,
   10.5887,       798,
   10.6089,       772,
   10.6291,       778,
   10.6493,       781,
   10.6696,       823,
   10.6898,       822,
     10.71,       758,
   10.7302,       713,
   10.7504,       783,
   10.7707,       735,
   10.7909,       722,
   10.8111,       687,
   10.8313,       797,
   10.8515,       739,
   10.8717,       741,
    10.892,       738,
   10.9122,       754,
   10.9324,       779,
   10.9526,       788,
   10.9728,       732,
   10.9931,       709,
   11.0133,       733,
   11.0335,       759,
   11.0537,       773,
   11.0739,       715,
   11.0942,       755,
   11.1144,       734,
   11.1346,       707,
   11.1548,       742,
    11.175,       705,
   11.1952,       714,
   11.2155,       666,
   11.2357,       762,
   11.2559,       720,
   11.2761,       776,
   11.2963,       703,
   11.3166,       720,
   11.3368,       783,
    11.357,       716,
   11.3772,       737,
   11.3974,       753,
   11.4177,       686,
   11.4379,       783,
   11.4581,       696,
   11.4783,       742,
   11.4985,       726,
   11.5187,       782,
    11.539,       761,
   11.5592,       700,
   11.5794,       754,
   11.5996,       733,
   11.6198,       736,
   11.6401,       734,
   11.6603,       700,
   11.6805,       730,
   11.7007,       724,
   11.7209,       707,
   11.7412,       759,
   11.7614,       724,
   11.7816,       750,
   11.8018,       702,
    11.822,       797,
   11.8422,       703,
   11.8625,       693,
   11.8827,       740,
   11.9029,       684,
   11.9231,       745,
   11.9433,       726,
   11.9636,       735,
   11.9838,       687,
    12.004,       731,
   12.0242,       746,
   12.0444,       730,
   12.0647,       736,
   12.0849,       695,
   12.1051,       740,
   12.1253,       726,
   12.1455,       710,
   12.1657,       710,
    12.186,       733,
   12.2062,       703,
   12.2264,       663,
   12.2466,       702,
   12.2668,       701,
   12.2871,       716,
   12.3073,       729,
   12.3275,       731,
   12.3477,       692,
   12.3679,       719,
   12.3882,       722,
   12.4084,       739,
   12.4286,       718,
   12.4488,       751,
    12.469,       753,
   12.4892,       691,
   12.5095,       741,
   12.5297,       659,
   12.5499,       717,
   12.5701,       722,
   12.5903,       651,
   12.6106,       644,
   12.6308,       698,
    12.651,       716,
   12.6712,       748,
   12.6914,       688,
   12.7117,       674,
   12.7319,       738,
   12.7521,       729,
   12.7723,       726,
   12.7925,       694,
   12.8127,       722,
    12.833,       703,
   12.8532,       698,
   12.8734,       679,
   12.8936,       664,
   12.9138,       697,
   12.9341,       679,
   12.9543,       638,
   12.9745,       712,
   12.9947,       672,
   13.0149,       720,
   13.0352,       687,
   13.0554,       649,
   13.0756,       686,
   13.0958,       683,
    13.116,       680,
   13.1362,       701,
   13.1565,       664,
   13.1767,       707,
   13.1969,       648,
   13.2171,       690,
   13.2373,       753,
   13.2576,       716,
   13.2778,       691,
    13.298,       746,
   13.3182,       628,
   13.3384,       723,
   13.3587,       689,
   13.3789,       754,
   13.3991,       737,
   13.4193,       741,
   13.4395,       746,
   13.4597,       792,
     13.48,       827,
   13.5002,       902,
   13.5204,       873,
   13.5406,       907,
   13.5608,       980,
   13.5811,       990,
   13.6013,      1155,
   13.6215,      1148,
   13.6417,      1050,
   13.6619,       849,
   13.6822,       818,
   13.7024,       748,
   13.7226,       727,
   13.7428,       703,
    13.763,       649,
   13.7832,       668,
   13.8035,       695,
   13.8237,       667,
   13.8439,       712,
   13.8641,       691,
   13.8843,       671,
   13.9046,       697,
   13.9248,       672,
    13.945,       681,
   13.9652,       677,
   13.9854,       636,
   14.0057,       680,
   14.0259,       657,
   14.0461,       683,
   14.0663,       662,
   14.0865,       644,
   14.1068,       714,
    14.127,       685,
   14.1472,       650,
   14.1674,       667,
   14.1876,       628,
   14.2078,       635,
   14.2281,       662,
   14.2483,       660,
   14.2685,       648,
   14.2887,       662,
   14.3089,       680,
   14.3292,       687,
   14.3494,       645,
   14.3696,       710,
   14.3898,       607,
     14.41,       652,
   14.4303,       654,
   14.4505,       605,
   14.4707,       634,
   14.4909,       649,
   14.5111,       644,
   14.5313,       658,
   14.5516,       597,
   14.5718,       635,
    14.592,       650,
   14.6122,       648,
   14.6324,       632,
   14.6527,       637,
   14.6729,       636,
   14.6931,       601,
   14.7133,       577,
   14.7335,       655,
   14.7538,       629,
    14.774,       630,
   14.7942,       676,
   14.8144,       599,
   14.8346,       592,
   14.8548,       638,
   14.8751,       652,
   14.8953,       618,
   14.9155,       629,
   14.9357,       600,
   14.9559,       658,
   14.9762,       635,
   14.9964,       618,
   15.0166,       686,
   15.0368,       604,
    15.057,       676,
   15.0773,       616,
   15.0975,       574,
   15.1177,       637,
   15.1379,       614,
   15.1581,       585,
   15.1783,       623,
   15.1986,       643,
   15.2188,       556,
    15.239,       614,
   15.2592,       552,
   15.2794,       632,
   15.2997,       614,
   15.3199,       588,
   15.3401,       601,
   15.3603,       578,
   15.3805,       601,
   15.4008,       616,
    15.421,       605,
   15.4412,       665,
   15.4614,       649,
   15.4816,       599,
   15.5018,       647,
   15.5221,       627,
   15.5423,       629,
   15.5625,       621,
   15.5827,       585,
   15.6029,       584,
   15.6232,       605,
   15.6434,       604,
   15.6636,       611,
   15.6838,       593,
    15.704,       625,
   15.7243,       627,
   15.7445,       632,
   15.7647,       585,
   15.7849,       567,
   15.8051,       585,
   15.8253,       609,
   15.8456,       584,
   15.8658,       642,
    15.886,       634,
   15.9062,       584,
   15.9264,       609,
   15.9467,       609,
   15.9669,       538,
   15.9871,       613,
   16.0073,       627,
   16.0275,       595,
   16.0478,       614,
    16.068,       613,
   16.0882,       601,
   16.1084,       608,
   16.1286,       591,
   16.1488,       617,
   16.1691,       637,
   16.1893,       584,
   16.2095,       589,
   16.2297,       582,
   16.2499,       592,
   16.2702,       588,
   16.2904,       556,
   16.3106,       577,
   16.3308,       598,
    16.351,       555,
   16.3713,       574,
   16.3915,       619,
   16.4117,       608,
   16.4319,       565,
   16.4521,       606,
   16.4723,       608,
   16.4926,       611,
   16.5128,       621,
    16.533,       590,
   16.5532,       542,
   16.5734,       584,
   16.5937,       605,
   16.6139,       586,
   16.6341,       633,
   16.6543,       646,
   16.6745,       621,
   16.6948,       634,
    16.715,       665,
   16.7352,       652,
   16.7554,       687,
   16.7756,       685,
   16.7958,       670,
   16.8161,       610,
   16.8363,       624,
   16.8565,       601,
   16.8767,       574,
   16.8969,       611,
   16.9172,       574,
   16.9374,       633,
   16.9576,       570,
   16.9778,       578,
    16.998,       614,
   17.0183,       588,
   17.0385,       573,
   17.0587,       635,
   17.0789,       595,
   17.0991,       523,
   17.1193,       638,
   17.1396,       667,
   17.1598,       616,
     17.18,       643,
   17.2002,       630,
   17.2204,       648,
   17.2407,       633,
   17.2609,       596,
   17.2811,       586,
   17.3013,       597,
   17.3215,       602,
   17.3418,       566,
    17.362,       574,
   17.3822,       536,
   17.4024,       547,
   17.4226,       585,
   17.4428,       547,
   17.4631,       647,
   17.4833,       595,
   17.5035,       564,
   17.5237,       557,
   17.5439,       550,
   17.5642,       543,
   17.5844,       521,
   17.6046,       583,
   17.6248,       582,
    17.645,       514,
   17.6653,       571,
   17.6855,       555,
   17.7057,       531,
   17.7259,       562,
   17.7461,       607,
   17.7663,       536,
   17.7866,       546,
   17.8068,       554,
    17.827,       548,
   17.8472,       520,
   17.8674,       541,
   17.8877,       555,
   17.9079,       541,
   17.9281,       575,
   17.9483,       557,
   17.9685,       484,
   17.9888,       471,
    18.009,       563,
   18.0292,       537,
   18.0494,       577,
   18.0696,       543,
   18.0898,       613,
   18.1101,       527,
   18.1303,       551,
   18.1505,       560,
   18.1707,       566,
   18.1909,       565,
   18.2112,       524,
   18.2314,       537,
   18.2516,       500,
   18.2718,       555,
    18.292,       551,
   18.3123,       537,
   18.3325,       585,
   18.3527,       565,
   18.3729,       568,
   18.3931,       551,
   18.4133,       556,
   18.4336,       541,
   18.4538,       534,
    18.474,       525,
   18.4942,       566,
   18.5144,       556,
   18.5347,       545,
   18.5549,       548,
   18.5751,       520,
   18.5953,       510,
   18.6155,       493,
   18.6358,       501,
    18.656,       549,
   18.6762,       546,
   18.6964,       532,
   18.7166,       546,
   18.7368,       556,
   18.7571,       533,
   18.7773,       553,
   18.7975,       528,
   18.8177,       501,
   18.8379,       520,
   18.8582,       539,
   18.8784,       565,
   18.8986,       524,
   18.9188,       513,
    18.939,       558,
   18.9593,       536,
   18.9795,       525,
   18.9997,       515,
   19.0199,       545,
   19.0401,       527,
   19.0603,       557,
   19.0806,       507,
   19.1008,       531,
    19.121,       532,
   19.1412,       541,
   19.1614,       512,
   19.1817,       535,
   19.2019,       504,
   19.2221,       526,
   19.2423,       487,
   19.2625,       526,
   19.2828,       519,
    19.303,       515,
   19.3232,       561,
   19.3434,       540,
   19.3636,       543,
   19.3838,       539,
   19.4041,       564,
   19.4243,       493,
   19.4445,       563,
   19.4647,       540,
   19.4849,       530,
   19.5052,       530,
   19.5254,       558,
   19.5456,       499,
   19.5658,       504,
    19.586,       528,
   19.6063,       509,
   19.6265,       514,
   19.6467,       532,
   19.6669,       503,
   19.6871,       558,
   19.7073,       524,
   19.7276,       534,
   19.7478,       505,
    19.768,       518,
   19.7882,       494,
   19.8084,       567,
   19.8287,       511,
   19.8489,       504,
   19.8691,       524,
   19.8893,       521,
   19.9095,       508,
   19.9298,       531,
     19.95,       533,
   19.9702,       578,
   19.9904,       540,
   20.0106,       529,
   20.0308,       505,
   20.0511,       478,
   20.0713,       482,
   20.0915,       538,
   20.1117,       474,
   20.1319,       509,
   20.1522,       510,
   20.1724,       454,
   20.1926,       500,
   20.2128,       513,
    20.233,       503,
   20.2533,       522,
   20.2735,       516,
   20.2937,       512,
   20.3139,       483,
   20.3341,       516,
   20.3543,       516,
   20.3746,       542,
   20.3948,       496,
    20.415,       499,
   20.4352,       529,
   20.4554,       502,
   20.4757,       519,
   20.4959,       471,
   20.5161,       477,
   20.5363,       517,
   20.5565,       479,
   20.5768,       508,
    20.597,       499,
   20.6172,       524,
   20.6374,       515,
   20.6576,       464,
   20.6778,       492,
   20.6981,       488,
   20.7183,       516,
   20.7385,       511,
   20.7587,       512,
   20.7789,       516,
   20.7992,       507,
   20.8194,       531,
   20.8396,       516,
   20.8598,       512,
     20.88,       541,
   20.9003,       513,
   20.9205,       560,
   20.9407,       494,
   20.9609,       479,
   20.9811,       454,
   21.0013,       498,
   21.0216,       570,
   21.0418,       482,
    21.062,       458,
   21.0822,       462,
   21.1024,       533,
   21.1227,       522,
   21.1429,       514,
   21.1631,       505,
   21.1833,       487,
   21.2035,       498,
   21.2238,       518,
    21.244,       465,
   21.2642,       489,
   21.2844,       474,
   21.3046,       478,
   21.3248,       507,
   21.3451,       527,
   21.3653,       508,
   21.3855,       489,
   21.4057,       487,
   21.4259,       529,
   21.4462,       527,
   21.4664,       516,
   21.4866,       483,
   21.5068,       497,
    21.527,       458,
   21.5473,       533,
   21.5675,       492,
   21.5877,       549,
   21.6079,       483,
   21.6281,       496,
   21.6483,       525,
   21.6686,       472,
   21.6888,       494,
    21.709,       495,
   21.7292,       495,
   21.7494,       482,
   21.7697,       493,
   21.7899,       507,
   21.8101,       469,
   21.8303,       545,
   21.8505,       507,
   21.8708,       508,
    21.891,       544,
   21.9112,       483,
   21.9314,       514,
   21.9516,       491,
   21.9718,       500,
   21.9921,       479,
   22.0123,       492,
   22.0325,       555,
   22.0527,       510,
   22.0729,       543,
   22.0932,       489,
   22.1134,       508,
   22.1336,       510,
   22.1538,       499,
    22.174,       473,
   22.1943,       504,
   22.2145,       560,
   22.2347,       547,
   22.2549,       491,
   22.2751,       495,
   22.2953,       508,
   22.3156,       483,
   22.3358,       511,
    22.356,       534,
   22.3762,       509,
   22.3964,       454,
   22.4167,       464,
   22.4369,       510,
   22.4571,       501,
   22.4773,       513,
   22.4975,       544,
   22.5178,       516,
    22.538,       561,
   22.5582,       517,
   22.5784,       494,
   22.5986,       523,
   22.6188,       497,
   22.6391,       515,
   22.6593,       484,
   22.6795,       533,
   22.6997,       473,
   22.7199,       510,
   22.7402,       519,
   22.7604,       520,
   22.7806,       512,
   22.8008,       511,
    22.821,       496,
   22.8413,       521,
   22.8615,       490,
   22.8817,       550,
   22.9019,       504,
   22.9221,       494,
   22.9423,       555,
   22.9626,       514,
   22.9828,       517,
    23.003,       534,
   23.0232,       508,
   23.0434,       525,
   23.0637,       535,
   23.0839,       539,
   23.1041,       522,
   23.1243,       521,
   23.1445,       541,
   23.1648,       528,
    23.185,       536,
   23.2052,       542,
   23.2254,       501,
   23.2456,       533,
   23.2658,       541,
   23.2861,       560,
   23.3063,       543,
   23.3265,       559,
   23.3467,       486,
   23.3669,       532,
   23.3872,       521,
   23.4074,       561,
   23.4276,       520,
   23.4478,       522,
    23.468,       506,
   23.4883,       549,
   23.5085,       594,
   23.5287,       532,
   23.5489,       482,
   23.5691,       498,
   23.5893,       511,
   23.6096,       516,
   23.6298,       531,
     23.65,       545,
   23.6702,       562,
   23.6904,       521,
   23.7107,       453,
   23.7309,       484,
   23.7511,       519,
   23.7713,       513,
   23.7915,       497,
   23.8118,       524,
    23.832,       530,
   23.8522,       482,
   23.8724,       548,
   23.8926,       459,
   23.9128,       464,
   23.9331,       543,
   23.9533,       486,
   23.9735,       518,
   23.9937,       512,
   24.0139,       554,
   24.0342,       573,
   24.0544,       572,
   24.0746,       564,
   24.0948,       546,
    24.115,       609,
   24.1353,       641,
   24.1555,       635,
   24.1757,       768,
   24.1959,       768,
   24.2161,       747,
   24.2363,       738,
   24.2566,       642,
   24.2768,       629,
    24.297,       620,
   24.3172,       604,
   24.3374,       612,
   24.3577,       589,
   24.3779,       527,
   24.3981,       503,
   24.4183,       547,
   24.4385,       506,
   24.4588,       474,
    24.479,       472,
   24.4992,       520,
   24.5194,       513,
   24.5396,       541,
   24.5599,       509,
   24.5801,       544,
   24.6003,       513,
   24.6205,       487,
   24.6407,       532,
   24.6609,       560,
   24.6812,       478,
   24.7014,       463,
   24.7216,       490,
   24.7418,       496,
    24.762,       460,
   24.7823,       498,
   24.8025,       520,
   24.8227,       485,
   24.8429,       483,
   24.8631,       501,
   24.8834,       509,
   24.9036,       491,
   24.9238,       481,
    24.944,       470,
   24.9642,       504,
   24.9844,       506,
   25.0047,       500,
   25.0249,       480,
   25.0451,       505,
   25.0653,       472,
   25.0855,       484,
   25.1058,       479,
    25.126,       482,
   25.1462,       460,
   25.1664,       509,
   25.1866,       473,
   25.2069,       504,
   25.2271,       470,
   25.2473,       503,
   25.2675,       486,
   25.2877,       475,
   25.3079,       477,
   25.3282,       436,
   25.3484,       475,
   25.3686,       482,
   25.3888,       492,
    25.409,       514,
   25.4293,       454,
   25.4495,       490,
   25.4697,       503,
   25.4899,       479,
   25.5101,       509,
   25.5304,       452,
   25.5506,       490,
   25.5708,       459,
    25.591,       465,
   25.6112,       502,
   25.6314,       477,
   25.6517,       449,
   25.6719,       470,
   25.6921,       493,
   25.7123,       514,
   25.7325,       472,
   25.7528,       527,
    25.773,       500,
   25.7932,       456,
   25.8134,       486,
   25.8336,       474,
   25.8539,       500,
   25.8741,       472,
   25.8943,       480,
   25.9145,       503,
   25.9347,       474,
   25.9549,       508,
   25.9752,       475,
   25.9954,       477,
   26.0156,       466,
   26.0358,       500,
    26.056,       495,
   26.0763,       491,
   26.0965,       475,
   26.1167,       489,
   26.1369,       484,
   26.1571,       448,
   26.1774,       480,
   26.1976,       466,
   26.2178,       429,
    26.238,       443,
   26.2582,       482,
   26.2784,       446,
   26.2987,       492,
   26.3189,       490,
   26.3391,       431,
   26.3593,       460,
   26.3795,       453,
   26.3998,       448,
     26.42,       476,
   26.4402,       471,
   26.4604,       484,
   26.4806,       453,
   26.5009,       477,
   26.5211,       508,
   26.5413,       475,
   26.5615,       472,
   26.5817,       472,
   26.6019,       470,
   26.6222,       505,
   26.6424,       471,
   26.6626,       490,
   26.6828,       482,
    26.703,       456,
   26.7233,       468,
   26.7435,       483,
   26.7637,       502,
   26.7839,       519,
   26.8041,       515,
   26.8244,       485,
   26.8446,       497,
   26.8648,       483,
    26.885,       500,
   26.9052,       540,
   26.9254,       497,
   26.9457,       517,
   26.9659,       539,
   26.9861,       524,
   27.0063,       551,
   27.0265,       574,
   27.0468,       585,
    27.067,       574,
   27.0872,       607,
   27.1074,       646,
   27.1276,       706,
   27.1479,       796,
   27.1681,       824,
   27.1883,       915,
   27.2085,      1059,
   27.2287,      1104,
   27.2489,      1176,
   27.2692,      1248,
   27.2894,      1224,
   27.3096,      1191,
   27.3298,      1186,
     27.35,      1150,
   27.3703,      1057,
   27.3905,       997,
   27.4107,       970,
   27.4309,       886,
   27.4511,       721,
   27.4714,       732,
   27.4916,       640,
   27.5118,       654,
    27.532,       575,
   27.5522,       650,
   27.5724,       590,
   27.5927,       597,
   27.6129,       554,
   27.6331,       538,
   27.6533,       535,
   27.6735,       518,
   27.6938,       518,
    27.714,       543,
   27.7342,       475,
   27.7544,       563,
   27.7746,       513,
   27.7949,       496,
   27.8151,       508,
   27.8353,       493,
   27.8555,       508,
   27.8757,       499,
   27.8959,       457,
   27.9162,       471,
   27.9364,       469,
   27.9566,       487,
   27.9768,       450,
    27.997,       462,
   28.0173,       416,
   28.0375,       422,
   28.0577,       488,
   28.0779,       448,
   28.0981,       446,
   28.1184,       448,
   28.1386,       446,
   28.1588,       450,
    28.179,       421,
   28.1992,       448,
   28.2194,       419,
   28.2397,       444,
   28.2599,       480,
   28.2801,       427,
   28.3003,       450,
   28.3205,       426,
   28.3408,       462,
    28.361,       435,
   28.3812,       442,
   28.4014,       425,
   28.4216,       405,
   28.4419,       461,
   28.4621,       457,
   28.4823,       415,
   28.5025,       483,
   28.5227,       443,
   28.5429,       469,
   28.5632,       464,
   28.5834,       465,
   28.6036,       444,
   28.6238,       462,
    28.644,       461,
   28.6643,       425,
   28.6845,       414,
   28.7047,       484,
   28.7249,       456,
   28.7451,       436,
   28.7654,       431,
   28.7856,       450,
   28.8058,       433,
    28.826,       413,
   28.8462,       457,
   28.8664,       431,
   28.8867,       479,
   28.9069,       436,
   28.9271,       462,
   28.9473,       443,
   28.9675,       420,
   28.9878,       449,
    29.008,       431,
   29.0282,       402,
   29.0484,       434,
   29.0686,       458,
   29.0889,       469,
   29.1091,       438,
   29.1293,       432,
   29.1495,       430,
   29.1697,       418,
   29.1899,       432,
   29.2102,       408,
   29.2304,       471,
   29.2506,       438,
   29.2708,       453,
    29.291,       444,
   29.3113,       401,
   29.3315,       445,
   29.3517,       446,
   29.3719,       439,
   29.3921,       422,
   29.4124,       420,
   29.4326,       442,
   29.4528,       463,
    29.473,       401,
   29.4932,       449,
   29.5134,       423,
   29.5337,       461,
   29.5539,       437,
   29.5741,       394,
   29.5943,       423,
   29.6145,       404,
   29.6348,       441,
    29.655,       431,
   29.6752,       427,
   29.6954,       433,
   29.7156,       453,
   29.7359,       439,
   29.7561,       417,
   29.7763,       435,
   29.7965,       423,
   29.8167,       443,
   29.8369,       455,
   29.8572,       452,
   29.8774,       481,
   29.8976,       467,
   29.9178,       441,
    29.938,       476,
   29.9583,       479,
   29.9785,       426,
   29.9987,       460,
   30.0189,       430,
   30.0391,       442,
   30.0594,       393,
   30.0796,       395,
   30.0998,       454,
     30.12,       437,
   30.1402,       469,
   30.1604,       454,
   30.1807,       438,
   30.2009,       485,
   30.2211,       424,
   30.2413,       466,
   30.2615,       429,
   30.2818,       473,
    30.302,       436,
   30.3222,       507,
   30.3424,       478,
   30.3626,       513,
   30.3829,       503,
   30.4031,       493,
   30.4233,       568,
   30.4435,       533,
   30.4637,       564,
   30.4839,       628,
   30.5042,       706,
   30.5244,       778,
   30.5446,       813,
   30.5648,       952,
    30.585,      1033,
   30.6053,      1026,
   30.6255,      1072,
   30.6457,       982,
   30.6659,       955,
   30.6861,       829,
   30.7064,       719,
   30.7266,       665,
   30.7468,       606,
    30.767,       556,
   30.7872,       587,
   30.8074,       558,
   30.8277,       525,
   30.8479,       526,
   30.8681,       528,
   30.8883,       486,
   30.9085,       513,
   30.9288,       466,
    30.949,       482,
   30.9692,       439,
   30.9894,       476,
   31.0096,       438,
   31.0299,       468,
   31.0501,       448,
   31.0703,       454,
   31.0905,       494,
   31.1107,       491,
   31.1309,       453,
   31.1512,       507,
   31.1714,       442,
   31.1916,       463,
   31.2118,       440,
    31.232,       478,
   31.2523,       473,
   31.2725,       468,
   31.2927,       477,
   31.3129,       493,
   31.3331,       478,
   31.3534,       589,
   31.3736,       585,
   31.3938,       553,
    31.414,       618,
   31.4342,       614,
   31.4544,       628,
   31.4747,       543,
   31.4949,       579,
   31.5151,       595,
   31.5353,       574,
   31.5555,       560,
   31.5758,       604,
    31.596,       599,
   31.6162,       550,
   31.6364,       587,
   31.6566,       607,
   31.6769,       667,
   31.6971,       637,
   31.7173,       722,
   31.7375,       721,
   31.7577,       733,
   31.7779,       790,
   31.7982,       768,
   31.8184,       771,
   31.8386,       728,
   31.8588,       748,
    31.879,       679,
   31.8993,       761,
   31.9195,       808,
   31.9397,       924,
   31.9599,       872,
   31.9801,       862,
   32.0004,       874,
   32.0206,       809,
   32.0408,       714,
    32.061,       649,
   32.0812,       615,
   32.1014,       578,
   32.1217,       472,
   32.1419,       492,
   32.1621,       491,
   32.1823,       493,
   32.2025,       451,
   32.2228,       448,
    32.243,       415,
   32.2632,       438,
   32.2834,       416,
   32.3036,       409,
   32.3239,       403,
   32.3441,       440,
   32.3643,       391,
   32.3845,       452,
   32.4047,       401,
   32.4249,       390,
   32.4452,       437,
   32.4654,       423,
   32.4856,       403,
   32.5058,       408,
    32.526,       403,
   32.5463,       436,
   32.5665,       412,
   32.5867,       379,
   32.6069,       386,
   32.6271,       395,
   32.6474,       428,
   32.6676,       434,
   32.6878,       432,
    32.708,       422,
   32.7282,       419,
   32.7484,       417,
   32.7687,       400,
   32.7889,       414,
   32.8091,       429,
   32.8293,       434,
   32.8495,       424,
   32.8698,       428,
     32.89,       413,
   32.9102,       420,
   32.9304,       413,
   32.9506,       418,
   32.9709,       411,
   32.9911,       466,
   33.0113,       383,
   33.0315,       393,
   33.0517,       411,
   33.0719,       412,
   33.0922,       434,
   33.1124,       463,
   33.1326,       406,
   33.1528,       425,
    33.173,       398,
   33.1933,       453,
   33.2135,       407,
   33.2337,       420,
   33.2539,       416,
   33.2741,       448,
   33.2944,       415,
   33.3146,       413,
   33.3348,       409,
    33.355,       455,
   33.3752,       443,
   33.3954,       439,
   33.4157,       477,
   33.4359,       524,
   33.4561,       530,
   33.4763,       557,
   33.4965,       575,
   33.5168,       527,
    33.537,       501,
   33.5572,       515,
   33.5774,       447,
   33.5976,       467,
   33.6179,       476,
   33.6381,       442,
   33.6583,       456,
   33.6785,       498,
   33.6987,       519,
   33.7189,       420,
   33.7392,       463,
   33.7594,       476,
   33.7796,       480,
   33.7998,       474,
     33.82,       483,
   33.8403,       489,
   33.8605,       507,
   33.8807,       528,
   33.9009,       576,
   33.9211,       593,
   33.9414,       585,
   33.9616,       592,
   33.9818,       620,
    34.002,       650,
   34.0222,       672,
   34.0424,       622,
   34.0627,       630,
   34.0829,       585,
   34.1031,       588,
   34.1233,       608,
   34.1435,       606,
   34.1638,       616,
    34.184,       634,
   34.2042,       623,
   34.2244,       611,
   34.2446,       620,
   34.2649,       687,
   34.2851,       682,
   34.3053,       704,
   34.3255,       773,
   34.3457,       747,
   34.3659,       765,
   34.3862,       821,
   34.4064,       939,
   34.4266,       916,
   34.4468,      1001,
    34.467,      1090,
   34.4873,      1105,
   34.5075,      1251,
   34.5277,      1374,
   34.5479,      1569,
   34.5681,      1687,
   34.5884,      2042,
   34.6086,      2262,
   34.6288,      2784,
    34.649,      3277,
   34.6692,      3888,
   34.6894,      4515,
   34.7097,      5100,
   34.7299,      5774,
   34.7501,      6458,
   34.7703,      7078,
   34.7905,      7189,
   34.8108,      7452,
    34.831,      7644,
   34.8512,      7626,
   34.8714,      7526,
   34.8916,      7179,
   34.9119,      6801,
   34.9321,      6341,
   34.9523,      5945,
   34.9725,      5418,
   34.9927,      4973,
   35.0129,      4638,
   35.0332,      4134,
   35.0534,      3652,
   35.0736,      3358,
   35.0938,      2960,
    35.114,      2633,
   35.1343,      2377,
   35.1545,      2206,
   35.1747,      2015,
   35.1949,      1878,
   35.2151,      1713,
   35.2354,      1564,
   35.2556,      1483,
   35.2758,      1354,
    35.296,      1325,
   35.3162,      1235,
   35.3365,      1130,
   35.3567,      1118,
   35.3769,      1074,
   35.3971,       991,
   35.4173,       992,
   35.4375,       920,
   35.4578,       951,
    35.478,       889,
   35.4982,       835,
   35.5184,       813,
   35.5386,       853,
   35.5589,       803,
   35.5791,       770,
   35.5993,       764,
   35.6195,       770,
   35.6397,       773,
     35.66,       751,
   35.6802,       710,
   35.7004,       748,
   35.7206,       734,
   35.7408,       724,
    35.761,       645,
   35.7813,       686,
   35.8015,       654,
   35.8217,       698,
   35.8419,       669,
   35.8621,       635,
   35.8824,       672,
   35.9026,       647,
   35.9228,       659,
    35.943,       610,
   35.9632,       597,
   35.9835,       657,
   36.0037,       565,
   36.0239,       600,
   36.0441,       590,
   36.0643,       574,
   36.0845,       553,
   36.1048,       564,
    36.125,       569,
   36.1452,       575,
   36.1654,       567,
   36.1856,       566,
   36.2059,       573,
   36.2261,       620,
   36.2463,       608,
   36.2665,       550,
   36.2867,       544,
    36.307,       629,
   36.3272,       645,
   36.3474,       637,
   36.3676,       602,
   36.3878,       577,
    36.408,       569,
   36.4283,       529,
   36.4485,       555,
   36.4687,       541,
   36.4889,       528,
   36.5091,       501,
   36.5294,       516,
   36.5496,       540,
   36.5698,       546,
     36.59,       518,
   36.6102,       536,
   36.6305,       481,
   36.6507,       535,
   36.6709,       510,
   36.6911,       540,
   36.7113,       545,
   36.7315,       574,
   36.7518,       570,
    36.772,       605,
   36.7922,       644,
   36.8124,       651,
   36.8326,       686,
   36.8529,       747,
   36.8731,       875,
   36.8933,       900,
   36.9135,      1048,
   36.9337,      1182,
    36.954,      1548,
   36.9742,      1901,
   36.9944,      2693,
   37.0146,      3651,
   37.0348,      5090,
    37.055,      7175,
   37.0753,      8674,
   37.0955,      7478,
   37.1157,      5725,
   37.1359,      5039,
   37.1561,      4638,
   37.1764,      3661,
   37.1966,      2524,
   37.2168,      1867,
    37.237,      1447,
   37.2572,      1154,
   37.2775,      1099,
   37.2977,       985,
   37.3179,       799,
   37.3381,       861,
   37.3583,       738,
   37.3785,       731,
   37.3988,       683,
    37.419,       663,
   37.4392,       641,
   37.4594,       569,
   37.4796,       590,
   37.4999,       606,
   37.5201,       551,
   37.5403,       550,
   37.5605,       550,
   37.5807,       539,
    37.601,       564,
   37.6212,       511,
   37.6414,       493,
   37.6616,       484,
   37.6818,       509,
    37.702,       533,
   37.7223,       545,
   37.7425,       495,
   37.7627,       519,
   37.7829,       494,
   37.8031,       514,
   37.8234,       468,
   37.8436,       467,
   37.8638,       474,
    37.884,       462,
   37.9042,       432,
   37.9245,       469,
   37.9447,       453,
   37.9649,       436,
   37.9851,       420,
   38.0053,       435,
   38.0255,       432,
   38.0458,       438,
    38.066,       438,
   38.0862,       437,
   38.1064,       469,
   38.1266,       409,
   38.1469,       467,
   38.1671,       427,
   38.1873,       481,
   38.2075,       469,
   38.2277,       429,
    38.248,       439,
   38.2682,       414,
   38.2884,       443,
   38.3086,       443,
   38.3288,       446,
    38.349,       478,
   38.3693,       475,
   38.3895,       461,
   38.4097,       493,
   38.4299,       472,
   38.4501,       492,
   38.4704,       450,
   38.4906,       419,
   38.5108,       481,
    38.531,       493,
   38.5512,       471,
   38.5715,       522,
   38.5917,       523,
   38.6119,       536,
   38.6321,       593,
   38.6523,       621,
   38.6725,       661,
   38.6928,       658,
    38.713,       668,
   38.7332,       646,
   38.7534,       711,
   38.7736,       620,
   38.7939,       598,
   38.8141,       554,
   38.8343,       528,
   38.8545,       479,
   38.8747,       497,
    38.895,       488,
   38.9152,       473,
   38.9354,       502,
   38.9556,       444,
   38.9758,       439,
    38.996,       504,
   39.0163,       476,
   39.0365,       476,
   39.0567,       443,
   39.0769,       446,
   39.0971,       471,
   39.1174,       438,
   39.1376,       457,
   39.1578,       396,
    39.178,       415,
   39.1982,       402,
   39.2185,       432,
   39.2387,       361,
   39.2589,       406,
   39.2791,       354,
   39.2993,       383,
   39.3195,       374,
   39.3398,       357,
     39.36,       376,
   39.3802,       378,
   39.4004,       419,
   39.4206,       363,
   39.4409,       365,
   39.4611,       386,
   39.4813,       371,
   39.5015,       358,
   39.5217,       356,
    39.542,       356,
   39.5622,       380,
   39.5824,       329,
   39.6026,       354,
   39.6228,       389,
    39.643,       365,
   39.6633,       344,
   39.6835,       357,
   39.7037,       372,
   39.7239,       372,
   39.7441,       357,
   39.7644,       395,
   39.7846,       383,
   39.8048,       353,
    39.825,       340,
   39.8452,       380,
   39.8655,       375,
   39.8857,       369,
   39.9059,       395,
   39.9261,       371,
   39.9463,       365,
   39.9665,       402,
   39.9868,       376,
    40.007,       362,
   40.0272,       362,
   40.0474,       351,
   40.0676,       368,
   40.0879,       364,
   40.1081,       382,
   40.1283,       360,
   40.1485,       369,
   40.1687,       355,
    40.189,       416,
   40.2092,       382,
   40.2294,       375,
   40.2496,       350,
   40.2698,       336,
     40.29,       350,
   40.3103,       385,
   40.3305,       352,
   40.3507,       344,
   40.3709,       374,
   40.3911,       377,
   40.4114,       362,
   40.4316,       382,
   40.4518,       386,
    40.472,       417,
   40.4922,       350,
   40.5125,       354,
   40.5327,       364,
   40.5529,       369,
   40.5731,       352,
   40.5933,       408,
   40.6135,       387,
   40.6338,       378,
    40.654,       380,
   40.6742,       355,
   40.6944,       359,
   40.7146,       360,
   40.7349,       364,
   40.7551,       375,
   40.7753,       330,
   40.7955,       382,
   40.8157,       362,
    40.836,       349,
   40.8562,       374,
   40.8764,       378,
   40.8966,       362,
   40.9168,       330,
    40.937,       360,
   40.9573,       347,
   40.9775,       376,
   40.9977,       385,
   41.0179,       383,
   41.0381,       341,
   41.0584,       383,
   41.0786,       367,
   41.0988,       391,
    41.119,       356,
   41.1392,       385,
   41.1595,       374,
   41.1797,       377,
   41.1999,       362,
   41.2201,       388,
   41.2403,       364,
   41.2605,       344,
   41.2808,       330,
    41.301,       382,
   41.3212,       324,
   41.3414,       366,
   41.3616,       348,
   41.3819,       358,
   41.4021,       366,
   41.4223,       377,
   41.4425,       391,
   41.4627,       364,
    41.483,       383,
   41.5032,       365,
   41.5234,       404,
   41.5436,       365,
   41.5638,       358,
    41.584,       343,
   41.6043,       387,
   41.6245,       359,
   41.6447,       375,
   41.6649,       379,
   41.6851,       370,
   41.7054,       380,
   41.7256,       391,
   41.7458,       377,
    41.766,       388,
   41.7862,       372,
   41.8065,       392,
   41.8267,       404,
   41.8469,       383,
   41.8671,       380,
   41.8873,       380,
   41.9075,       394,
   41.9278,       416,
    41.948,       398,
   41.9682,       402,
   41.9884,       429,
   42.0086,       434,
   42.0289,       439,
   42.0491,       471,
   42.0693,       480,
   42.0895,       459,
   42.1097,       443,
     42.13,       506,
   42.1502,       560,
   42.1704,       543,
   42.1906,       680,
   42.2108,       618,
    42.231,       656,
   42.2513,       665,
   42.2715,       629,
   42.2917,       640,
   42.3119,       660,
   42.3321,       657,
   42.3524,       660,
   42.3726,       690,
   42.3928,       660,
    42.413,       686,
   42.4332,       663,
   42.4535,       757,
   42.4737,       735,
   42.4939,       815,
   42.5141,       965,
   42.5343,       966,
   42.5545,      1031,
   42.5748,      1081,
    42.595,      1150,
   42.6152,      1230,
   42.6354,      1218,
   42.6556,      1256,
   42.6759,      1295,
   42.6961,      1240,
   42.7163,      1223,
   42.7365,      1174,
   42.7567,      1092,
    42.777,       952,
   42.7972,       950,
   42.8174,       974,
   42.8376,       886,
   42.8578,       823,
    42.878,       773,
   42.8983,       742,
   42.9185,       726,
   42.9387,       631,
   42.9589,       641,
   42.9791,       603,
   42.9994,       546,
   43.0196,       525,
   43.0398,       553,
     43.06,       478,
   43.0802,       484,
   43.1005,       476,
   43.1207,       440,
   43.1409,       459,
   43.1611,       461,
   43.1813,       477,
   43.2015,       472,
   43.2218,       419,
    43.242,       423,
   43.2622,       430,
   43.2824,       399,
   43.3026,       421,
   43.3229,       449,
   43.3431,       394,
   43.3633,       381,
   43.3835,       415,
   43.4037,       382,
    43.424,       423,
   43.4442,       408,
   43.4644,       426,
   43.4846,       423,
   43.5048,       433,
    43.525,       429,
   43.5453,       466,
   43.5655,       420,
   43.5857,       436,
   43.6059,       438,
   43.6261,       426,
   43.6464,       437,
   43.6666,       392,
   43.6868,       429,
    43.707,       409,
   43.7272,       421,
   43.7475,       448,
   43.7677,       392,
   43.7879,       397,
   43.8081,       388,
   43.8283,       407,
   43.8485,       353,
   43.8688,       387,
    43.889,       341,
   43.9092,       379,
   43.9294,       397,
   43.9496,       387,
   43.9699,       341,
   43.9901,       395,
   44.0103,       368,
   44.0305,       388,
   44.0507,       339,
    44.071,       348,
   44.0912,       370,
   44.1114,       339,
   44.1316,       362,
   44.1518,       387,
    44.172,       379,
   44.1923,       433,
   44.2125,       411,
   44.2327,       445,
   44.2529,       472,
   44.2731,       515,
   44.2934,       564,
   44.3136,       586,
   44.3338,       547,
    44.354,       584,
   44.3742,       526,
   44.3945,       490,
   44.4147,       494,
   44.4349,       506,
   44.4551,       419,
   44.4753,       439,
   44.4955,       388,
   44.5158,       385,
    44.536,       387,
   44.5562,       417,
   44.5764,       361,
   44.5966,       394,
   44.6169,       352,
   44.6371,       400,
   44.6573,       403,
   44.6775,       395,
   44.6977,       348,
    44.718,       354,
   44.7382,       374,
   44.7584,       384,
   44.7786,       425,
   44.7988,       396,
    44.819,       413,
   44.8393,       400,
   44.8595,       379,
   44.8797,       408,
   44.8999,       462,
   44.9201,       464,
   44.9404,       471,
   44.9606,       476,
   44.9808,       488,
    45.001,       451,
   45.0212,       454,
   45.0415,       474,
   45.0617,       444,
   45.0819,       467,
   45.1021,       461,
   45.1223,       481,
   45.1425,       484,
   45.1628,       441,
    45.183,       461,
   45.2032,       459,
   45.2234,       467,
   45.2436,       428,
   45.2639,       444,
   45.2841,       386,
   45.3043,       399,
   45.3245,       374,
   45.3447,       380,
    45.365,       370,
   45.3852,       343,
   45.4054,       333,
   45.4256,       356,
   45.4458,       330,
    45.466,       357,
   45.4863,       347,
   45.5065,       315,
   45.5267,       349,
   45.5469,       361,
   45.5671,       345,
   45.5874,       333,
   45.6076,       327,
   45.6278,       341,
    45.648,       318,
   45.6682,       313,
   45.6885,       339,
   45.7087,       315,
   45.7289,       316,
   45.7491,       355,
   45.7693,       324,
   45.7895,       325,
   45.8098,       314,
     45.83,       325,
   45.8502,       325,
   45.8704,       299,
   45.8906,       326,
   45.9109,       335,
   45.9311,       356,
   45.9513,       365,
   45.9715,       392,
   45.9917,       320,
    46.012,       362,
   46.0322,       341,
   46.0524,       353,
   46.0726,       366,
   46.0928,       379,
   46.1131,       385,
   46.1333,       334,
   46.1535,       378,
   46.1737,       386,
   46.1939,       382,
   46.2141,       400,
   46.2344,       386,
   46.2546,       401,
   46.2748,       408,
    46.295,       395,
   46.3152,       420,
   46.3355,       445,
   46.3557,       422,
   46.3759,       414,
   46.3961,       470,
   46.4163,       501,
   46.4366,       491,
   46.4568,       502,
    46.477,       574,
   46.4972,       590,
   46.5174,       631,
   46.5376,       690,
   46.5579,       745,
   46.5781,       763,
   46.5983,       869,
   46.6185,       918,
   46.6387,      1007,
    46.659,      1151,
   46.6792,      1201,
   46.6994,      1297,
   46.7196,      1336,
   46.7398,      1374,
   46.7601,      1414,
   46.7803,      1459,
   46.8005,      1520,
   46.8207,      1459,
   46.8409,      1475,
   46.8611,      1378,
   46.8814,      1376,
   46.9016,      1388,
   46.9218,      1309,
    46.942,      1263,
   46.9622,      1212,
   46.9825,      1152,
   47.0027,      1102,
   47.0229,      1014,
   47.0431,      1017,
   47.0633,       932,
   47.0836,       888,
   47.1038,       824,
    47.124,       846,
   47.1442,       756,
   47.1644,       702,
   47.1846,       644,
   47.2049,       606,
   47.2251,       596,
   47.2453,       607,
   47.2655,       586,
   47.2857,       534,
    47.306,       514,
   47.3262,       495,
   47.3464,       509,
   47.3666,       500,
   47.3868,       498,
   47.4071,       457,
   47.4273,       433,
   47.4475,       455,
   47.4677,       474,
   47.4879,       410,
   47.5081,       422,
   47.5284,       435,
   47.5486,       453,
   47.5688,       429,
    47.589,       406,
   47.6092,       439,
   47.6295,       438,
   47.6497,       457,
   47.6699,       452,
   47.6901,       450,
   47.7103,       388,
   47.7306,       389,
   47.7508,       396,
    47.771,       396,
   47.7912,       409,
   47.8114,       372,
   47.8316,       369,
   47.8519,       408,
   47.8721,       390,
   47.8923,       404,
   47.9125,       382,
   47.9327,       406,
    47.953,       392,
   47.9732,       405,
   47.9934,       433,
   48.0136,       389,
   48.0338,       417,
   48.0541,       402,
   48.0743,       393,
   48.0945,       423,
   48.1147,       411,
   48.1349,       364,
   48.1551,       415,
   48.1754,       368,
   48.1956,       380,
   48.2158,       432,
    48.236,       420,
   48.2562,       380,
   48.2765,       400,
   48.2967,       393,
   48.3169,       409,
   48.3371,       394,
   48.3573,       374,
   48.3776,       371,
   48.3978,       365,
    48.418,       353,
   48.4382,       358,
   48.4584,       326,
   48.4786,       356,
   48.4989,       337,
   48.5191,       362,
   48.5393,       344,
   48.5595,       318,
   48.5797,       330,
      48.6,       330,
   48.6202,       316,
   48.6404,       321,
   48.6606,       307,
   48.6808,       326,
   48.7011,       334,
   48.7213,       326,
   48.7415,       336,
   48.7617,       357,
   48.7819,       334,
   48.8021,       334,
   48.8224,       313,
   48.8426,       324,
   48.8628,       318,
    48.883,       359,
   48.9032,       287,
   48.9235,       305,
   48.9437,       322,
   48.9639,       316,
   48.9841,       284,
   49.0043,       280,
   49.0246,       325,
   49.0448,       320,
    49.065,       322,
   49.0852,       309,
   49.1054,       291,
   49.1256,       310,
   49.1459,       303,
   49.1661,       313,
   49.1863,       328,
   49.2065,       347,
   49.2267,       308,
    49.247,       323,
   49.2672,       298,
   49.2874,       333,
   49.3076,       268,
   49.3278,       302,
   49.3481,       326,
   49.3683,       304,
   49.3885,       341,
   49.4087,       328,
   49.4289,       292,
   49.4491,       301,
   49.4694,       329,
   49.4896,       336,
   49.5098,       341,
     49.53,       304,
   49.5502,       305,
   49.5705,       299,
   49.5907,       344,
   49.6109,       332,
   49.6311,       348,
   49.6513,       316,
   49.6716,       301,
   49.6918,       332,
    49.712,       325,
   49.7322,       299,
   49.7524,       327,
   49.7726,       327,
   49.7929,       317,
   49.8131,       313,
   49.8333,       306,
   49.8535,       310,
   49.8737,       296,
    49.894,       316,
   49.9142,       356,
   49.9344,       346,
   49.9546,       333,
   49.9748,       327,
   49.9951,       348,
   50.0153,       327,
   50.0355,       330,
   50.0557,       329,
   50.0759,       327,
   50.0961,       330,
   50.1164,       340,
   50.1366,       350,
   50.1568,       346,
    50.177,       330,
   50.1972,       386,
   50.2175,       388,
   50.2377,       366,
   50.2579,       385,
   50.2781,       444,
   50.2983,       432,
   50.3186,       482,
   50.3388,       452,
    50.359,       422,
   50.3792,       398,
   50.3994,       409,
   50.4196,       396,
   50.4399,       401,
   50.4601,       366,
   50.4803,       388,
   50.5005,       348,
   50.5207,       384,
    50.541,       369,
   50.5612,       363,
   50.5814,       366,
   50.6016,       344,
   50.6218,       357,
   50.6421,       360,
   50.6623,       353,
   50.6825,       370,
   50.7027,       400,
   50.7229,       375,
   50.7431,       387,
   50.7634,       388,
   50.7836,       399,
   50.8038,       386,
    50.824,       409,
   50.8442,       434,
   50.8645,       445,
   50.8847,       427,
   50.9049,       448,
   50.9251,       418,
   50.9453,       436,
   50.9656,       497,
   50.9858,       508,
    51.006,       539,
   51.0262,       582,
   51.0464,       595,
   51.0666,       681,
   51.0869,       703,
   51.1071,       789,
   51.1273,       841,
   51.1475,       871,
   51.1677,       923,
    51.188,      1020,
   51.2082,      1024,
   51.2284,      1118,
   51.2486,      1116,
   51.2688,      1203,
   51.2891,      1214,
   51.3093,      1178,
   51.3295,      1240,
   51.3497,      1191,
   51.3699,      1244,
   51.3901,      1162,
   51.4104,      1165,
   51.4306,      1158,
   51.4508,      1070,
    51.471,      1070,
   51.4912,       990,
   51.5115,       967,
   51.5317,       887,
   51.5519,       849,
   51.5721,       834,
   51.5923,       821,
   51.6126,       672,
   51.6328,       688,
    51.653,       661,
   51.6732,       621,
   51.6934,       625,
   51.7136,       839,
   51.7339,       542,
   51.7541,       506,
   51.7743,       511,
   51.7945,       521,
   51.8147,       476,
    51.835,       450,
   51.8552,       465,
   51.8754,       438,
   51.8956,       439,
   51.9158,       457,
   51.9361,       484,
   51.9563,       422,
   51.9765,       382,
   51.9967,       430,
   52.0169,       399,
   52.0371,       376,
   52.0574,       413,
   52.0776,       400,
   52.0978,       403,
    52.118,       351,
   52.1382,       391,
   52.1585,       377,
   52.1787,       356,
   52.1989,       374,
   52.2191,       345,
   52.2393,       362,
   52.2596,       383,
   52.2798,       361,
      52.3,       382,
   52.3202,       353,
   52.3404,       342,
   52.3606,       375,
   52.3809,       364,
   52.4011,       349,
   52.4213,       329,
   52.4415,       357,
   52.4617,       375,
    52.482,       356,
   52.5022,       335,
   52.5224,       383,
   52.5426,       332,
   52.5628,       325,
   52.5831,       376,
   52.6033,       322,
   52.6235,       344,
   52.6437,       346,
   52.6639,       363,
   52.6841,       316,
   52.7044,       359,
   52.7246,       306,
   52.7448,       338,
    52.765,       360,
   52.7852,       354,
   52.8055,       299,
   52.8257,       327,
   52.8459,       346,
   52.8661,       357,
   52.8863,       348,
   52.9066,       354,
   52.9268,       398,
    52.947,       361,
   52.9672,       383,
   52.9874,       367,
   53.0076,       404,
   53.0279,       378,
   53.0481,       392,
   53.0683,       421,
   53.0885,       437,
   53.1087,       452,
    53.129,       497,
   53.1492,       540,
   53.1694,       550,
   53.1896,       621,
   53.2098,       680,
   53.2301,       778,
   53.2503,       903,
   53.2705,      1138,
   53.2907,      1389,
   53.3109,      1612,
   53.3311,      1809,
   53.3514,      1920,
   53.3716,      1911,
   53.3918,      1795,
    53.412,      1617,
   53.4322,      1625,
   53.4525,      1467,
   53.4727,      1443,
   53.4929,      1347,
   53.5131,      1151,
   53.5333,       999,
   53.5536,       848,
   53.5738,       722,
    53.594,       707,
   53.6142,       616,
   53.6344,       580,
   53.6546,       586,
   53.6749,       546,
   53.6951,       563,
   53.7153,       593,
   53.7355,       578,
   53.7557,       641,
    53.776,       631,
   53.7962,       647,
   53.8164,       726,
   53.8366,       692,
   53.8568,       680,
   53.8771,       667,
   53.8973,       592,
   53.9175,       611,
   53.9377,       580,
   53.9579,       574,
   53.9781,       501,
   53.9984,       475,
   54.0186,       424,
   54.0388,       440,
    54.059,       375,
   54.0792,       392,
   54.0995,       377,
   54.1197,       348,
   54.1399,       377,
   54.1601,       391,
   54.1803,       358,
   54.2006,       341,
   54.2208,       311,
    54.241,       329,
   54.2612,       337,
   54.2814,       324,
   54.3016,       328,
   54.3219,       315,
   54.3421,       320,
   54.3623,       311,
   54.3825,       331,
   54.4027,       328,
    54.423,       313,
   54.4432,       313,
   54.4634,       323,
   54.4836,       296,
   54.5038,       314,
   54.5241,       293,
   54.5443,       311,
   54.5645,       293,
   54.5847,       287,
   54.6049,       337,
   54.6251,       307,
   54.6454,       342,
   54.6656,       308,
   54.6858,       316,
    54.706,       315,
   54.7262,       285,
   54.7465,       287,
   54.7667,       322,
   54.7869,       291,
   54.8071,       266,
   54.8273,       303,
   54.8476,       296,
   54.8678,       277,
    54.888,       277,
   54.9082,       294,
   54.9284,       275,
   54.9486,       299,
   54.9689,       291,
   54.9891,       303,
   55.0093,       302,
   55.0295,       307,
   55.0497,       308,
     55.07,       328,
   55.0902,       288,
   55.1104,       269,
   55.1306,       303,
   55.1508,       293,
   55.1711,       295,
   55.1913,       299,
   55.2115,       303,
   55.2317,       278,
   55.2519,       324,
   55.2721,       298,
   55.2924,       318,
   55.3126,       292,
   55.3328,       300,
    55.353,       300,
   55.3732,       299,
   55.3935,       316,
   55.4137,       312,
   55.4339,       321,
   55.4541,       292,
   55.4743,       303,
   55.4946,       320,
   55.5148,       307,
    55.535,       332,
   55.5552,       307,
   55.5754,       346,
   55.5956,       326,
   55.6159,       313,
   55.6361,       359,
   55.6563,       334,
   55.6765,       335,
   55.6967,       338,
    55.717,       334,
   55.7372,       329,
   55.7574,       382,
   55.7776,       385,
   55.7978,       417,
   55.8181,       434,
   55.8383,       440,
   55.8585,       493,
   55.8787,       473,
   55.8989,       466,
   55.9191,       515,
   55.9394,       506,
   55.9596,       523,
   55.9798,       530,
        56,       567,
   56.0202,       576,
   56.0405,       587,
   56.0607,       656,
   56.0809,       633,
   56.1011,       602,
   56.1213,       693,
   56.1416,       700,
   56.1618,       710,
    56.182,       681,
   56.2022,       734,
   56.2224,       743,
   56.2426,       737,
   56.2629,       814,
   56.2831,       765,
   56.3033,       804,
   56.3235,       795,
   56.3437,       856,
    56.364,       844,
   56.3842,       878,
   56.4044,       963,
   56.4246,       955,
   56.4448,       947,
   56.4651,       954,
   56.4853,      1039,
   56.5055,      1065,
   56.5257,      1062,
   56.5459,      1116,
   56.5661,      1148,
   56.5864,      1162,
   56.6066,      1157,
   56.6268,      1162,
    56.647,      1153,
   56.6672,      1166,
   56.6875,      1156,
   56.7077,      1147,
   56.7279,      1195,
   56.7481,      1232,
   56.7683,      1196,
   56.7886,      1165,
   56.8088,      1137,
    56.829,      1153,
   56.8492,      1052,
   56.8694,      1030,
   56.8897,      1086,
   56.9099,       973,
   56.9301,       953,
   56.9503,       968,
   56.9705,       912,
   56.9907,       922,
    57.011,       860,
   57.0312,       834,
   57.0514,       853,
   57.0716,       760,
   57.0918,       739,
   57.1121,       696,
   57.1323,       684,
   57.1525,       685,
   57.1727,       613,
   57.1929,       632,
   57.2132,       607,
   57.2334,       563,
   57.2536,       557,
   57.2738,       547,
    57.294,       570,
   57.3142,       566,
   57.3345,       578,
   57.3547,       613,
   57.3749,       603,
   57.3951,       556,
   57.4153,       564,
   57.4356,       574,
   57.4558,       579,
    57.476,       608,
   57.4962,       654,
   57.5164,       687,
   57.5367,       667,
   57.5569,       701,
   57.5771,       773,
   57.5973,       916,
   57.6175,       819,
   57.6377,       882,
    57.658,       955,
   57.6782,       982,
   57.6984,      1012,
   57.7186,      1074,
   57.7388,      1067,
   57.7591,      1144,
   57.7793,      1146,
   57.7995,      1149,
   57.8197,      1189,
   57.8399,      1172,
   57.8602,      1243,
   57.8804,      1216,
   57.9006,      1191,
   57.9208,      1150,
    57.941,      1218,
   57.9612,      1078,
   57.9815,      1035,
   58.0017,      1027,
   58.0219,       997,
   58.0421,       997,
   58.0623,       978,
   58.0826,       913,
   58.1028,       840,
    58.123,       882,
   58.1432,       886,
   58.1634,       810,
   58.1837,       792,
   58.2039,       794,
   58.2241,       669,
   58.2443,       684,
   58.2645,       631,
   58.2847,       677,
    58.305,       633,
   58.3252,       605,
   58.3454,       614,
   58.3656,       498,
   58.3858,       572,
   58.4061,       549,
   58.4263,       493,
   58.4465,       508,
   58.4667,       477,
   58.4869,       460,
   58.5072,       467,
   58.5274,       471,
   58.5476,       456,
   58.5678,       432,
    58.588,       401,
   58.6082,       455,
   58.6285,       426,
   58.6487,       465,
   58.6689,       428,
   58.6891,       415,
   58.7093,       396,
   58.7296,       369,
   58.7498,       377,
     58.77,       402,
   58.7902,       367,
   58.8104,       381,
   58.8307,       338,
   58.8509,       380,
   58.8711,       382,
   58.8913,       397,
   58.9115,       384,
   58.9317,       389,
    58.952,       430,
   58.9722,       403,
   58.9924,       446,
   59.0126,       454,
   59.0328,       449,
   59.0531,       439,
   59.0733,       448,
   59.0935,       440,
   59.1137,       399,
   59.1339,       454,
   59.1542,       360,
   59.1744,       410,
   59.1946,       395,
   59.2148,       402,
    59.235,       353,
   59.2552,       350,
   59.2755,       343,
   59.2957,       343,
   59.3159,       351,
   59.3361,       343,
   59.3563,       333,
   59.3766,       343,
   59.3968,       317,
    59.417,       303,
   59.4372,       350,
   59.4574,       309,
   59.4777,       297,
   59.4979,       311,
   59.5181,       312,
   59.5383,       331,
   59.5585,       325,
   59.5787,       271,
    59.599,       296,
   59.6192,       326,
   59.6394,       297,
   59.6596,       287,
   59.6798,       284,
   59.7001,       289,
   59.7203,       297,
   59.7405,       303,
   59.7607,       320,
   59.7809,       277,
   59.8012,       274,
   59.8214,       290,
   59.8416,       296,
   59.8618,       281,
    59.882,       293,
   59.9022,       234,
   59.9225,       299,
   59.9427,       287,
   59.9629,       268,
   59.9831,       243,
   60.0033,       283,
   60.0236,       309,
   60.0438,       287,
    60.064,       255,
   60.0842,       255,
   60.1044,       276,
   60.1247,       289,
   60.1449,       277,
   60.1651,       244,
   60.1853,       254,
   60.2055,       230,
   60.2257,       265,
    60.246,       272,
   60.2662,       283,
   60.2864,       256,
   60.3066,       261,
   60.3268,       272,
   60.3471,       254,
   60.3673,       274,
   60.3875,       244,
   60.4077,       250,
   60.4279,       286,
   60.4482,       255,
   60.4684,       241,
   60.4886,       254,
   60.5088,       246,
    60.529,       267,
   60.5492,       262,
   60.5695,       220,
   60.5897,       270,
   60.6099,       271,
   60.6301,       238,
   60.6503,       240,
   60.6706,       242,
   60.6908,       237,
    60.711,       261,
   60.7312,       246,
   60.7514,       250,
   60.7717,       247,
   60.7919,       257,
   60.8121,       223,
   60.8323,       243,
   60.8525,       254,
   60.8727,       252,
    60.893,       256,
   60.9132,       265,
   60.9334,       239,
   60.9536,       250,
   60.9738,       247,
   60.9941,       269,
   61.0143,       226,
   61.0345,       236,
   61.0547,       244,
   61.0749,       227,
   61.0952,       283,
   61.1154,       241,
   61.1356,       239,
   61.1558,       231,
    61.176,       262,
   61.1962,       257,
   61.2165,       252,
   61.2367,       243,
   61.2569,       220,
   61.2771,       254,
   61.2973,       241,
   61.3176,       253,
   61.3378,       232,
    61.358,       249,
   61.3782,       241,
   61.3984,       256,
   61.4187,       245,
   61.4389,       275,
   61.4591,       254,
   61.4793,       258,
   61.4995,       258,
   61.5197,       243,
     61.54,       228,
   61.5602,       294,
   61.5804,       271,
   61.6006,       301,
   61.6208,       302,
   61.6411,       323,
   61.6613,       349,
   61.6815,       337,
   61.7017,       355,
   61.7219,       399,
   61.7422,       335,
   61.7624,       364,
   61.7826,       362,
   61.8028,       350,
    61.823,       324,
   61.8432,       336,
   61.8635,       332,
   61.8837,       350,
   61.9039,       314,
   61.9241,       305,
   61.9443,       314,
   61.9646,       282,
   61.9848,       303,
    62.005,       269,
   62.0252,       280,
   62.0454,       243,
   62.0657,       259,
   62.0859,       262,
   62.1061,       295,
   62.1263,       272,
   62.1465,       284,
   62.1667,       252,
    62.187,       266,
   62.2072,       289,
   62.2274,       266,
   62.2476,       279,
   62.2678,       243,
   62.2881,       307,
   62.3083,       304,
   62.3285,       312,
   62.3487,       293,
   62.3689,       328,
   62.3892,       326,
   62.4094,       316,
   62.4296,       310,
   62.4498,       300,
     62.47,       297,
   62.4902,       285,
   62.5105,       303,
   62.5307,       260,
   62.5509,       299,
   62.5711,       272,
   62.5913,       287,
   62.6116,       211,
   62.6318,       264,
    62.652,       245,
   62.6722,       236,
   62.6924,       234,
   62.7127,       232,
   62.7329,       226,
   62.7531,       231,
   62.7733,       253,
   62.7935,       225,
   62.8137,       208,
    62.834,       230,
   62.8542,       242,
   62.8744,       238,
   62.8946,       207,
   62.9148,       244,
   62.9351,       235,
   62.9553,       236,
   62.9755,       229,
   62.9957,       216,
   63.0159,       219,
   63.0362,       220,
   63.0564,       213,
   63.0766,       234,
   63.0968,       212,
    63.117,       218,
   63.1372,       218,
   63.1575,       201,
   63.1777,       235,
   63.1979,       234,
   63.2181,       245,
   63.2383,       259,
   63.2586,       229,
   63.2788,       237,
    63.299,       218,
   63.3192,       224,
   63.3394,       253,
   63.3597,       239,
   63.3799,       237,
   63.4001,       253,
   63.4203,       258,
   63.4405,       268,
   63.4607,       304,
    63.481,       293,
   63.5012,       301,
   63.5214,       311,
   63.5416,       314,
   63.5618,       288,
   63.5821,       283,
   63.6023,       283,
   63.6225,       296,
   63.6427,       307,
   63.6629,       297,
   63.6832,       272,
   63.7034,       263,
   63.7236,       266,
   63.7438,       254,
    63.764,       257,
   63.7842,       240,
   63.8045,       247,
   63.8247,       214,
   63.8449,       215,
   63.8651,       223,
   63.8853,       238,
   63.9056,       209,
   63.9258,       217,
    63.946,       227,
   63.9662,       224,
   63.9864,       204,
   64.0067,       217,
   64.0269,       203,
   64.0471,       208,
   64.0673,       215,
   64.0875,       220,
   64.1077,       214,
    64.128,       232,
   64.1482,       213,
   64.1684,       187,
   64.1886,       233,
   64.2088,       207,
   64.2291,       208,
   64.2493,       222,
   64.2695,       213,
   64.2897,       213,
   64.3099,       238,
   64.3302,       223,
   64.3504,       188,
   64.3706,       234,
   64.3908,       219,
    64.411,       203,
   64.4312,       222,
   64.4515,       210,
   64.4717,       227,
   64.4919,       210,
   64.5121,       179,
   64.5323,       207,
   64.5526,       222,
   64.5728,       212,
    64.593,       190,
   64.6132,       245,
   64.6334,       225,
   64.6537,       207,
   64.6739,       251,
   64.6941,       226,
   64.7143,       232,
   64.7345,       233,
   64.7547,       213,
    64.775,       201,
   64.7952,       208,
   64.8154,       210,
   64.8356,       215,
   64.8558,       210,
   64.8761,       234,
   64.8963,       223,
   64.9165,       231,
   64.9367,       225,
   64.9569,       234,
   64.9772,       225,
   64.9974,       224,
   65.0176,       247,
   65.0378,       235,
    65.058,       199,
   65.0782,       212,
   65.0985,       195,
   65.1187,       227,
   65.1389,       218,
   65.1591,       244,
   65.1793,       216,
   65.1996,       220,
   65.2198,       208,
     65.24,       241,
   65.2602,       256,
   65.2804,       219,
   65.3007,       204,
   65.3209,       213,
   65.3411,       232,
   65.3613,       203,
   65.3815,       199,
   65.4017,       202,
    65.422,       225,
   65.4422,       213,
   65.4624,       205,
   65.4826,       229,
   65.5028,       243,
   65.5231,       229,
   65.5433,       204,
   65.5635,       212,
   65.5837,       222,
   65.6039,       244,
   65.6242,       214,
   65.6444,       209,
   65.6646,       235,
   65.6848,       208,
    65.705,       213,
   65.7252,       202,
   65.7455,       226,
   65.7657,       219,
   65.7859,       208,
   65.8061,       210,
   65.8263,       199,
   65.8466,       211,
   65.8668,       215,
    65.887,       195,
   65.9072,       231,
   65.9274,       219,
   65.9477,       212,
   65.9679,       194,
   65.9881,       244,
   66.0083,       232,
   66.0285,       223,
   66.0487,       212,
    66.069,       233,
   66.0892,       208,
   66.1094,       230,
   66.1296,       202,
   66.1498,       246,
   66.1701,       262,
   66.1903,       227,
   66.2105,       216,
   66.2307,       273,
   66.2509,       245,
   66.2712,       207,
   66.2914,       227,
   66.3116,       207,
   66.3318,       252,
    66.352,       236,
   66.3722,       266,
   66.3925,       263,
   66.4127,       251,
   66.4329,       265,
   66.4531,       280,
   66.4733,       309,
   66.4936,       314,
   66.5138,       304,
    66.534,       317,
   66.5542,       391,
   66.5744,       371,
   66.5947,       446,
   66.6149,       485,
   66.6351,       567,
   66.6553,       617,
   66.6755,       617,
   66.6957,       643,
    66.716,       607,
   66.7362,       579,
   66.7564,       530,
   66.7766,       561,
   66.7968,       492,
   66.8171,       520,
   66.8373,       481,
   66.8575,       473,
   66.8777,       405,
   66.8979,       412,
   66.9182,       388,
   66.9384,       361,
   66.9586,       297,
   66.9788,       308,
    66.999,       261,
   67.0192,       298,
   67.0395,       304,
   67.0597,       290,
   67.0799,       262,
   67.1001,       282,
   67.1203,       247,
   67.1406,       292,
   67.1608,       258,
    67.181,       267,
   67.2012,       269,
   67.2214,       260,
   67.2417,       236,
   67.2619,       238,
   67.2821,       210,
   67.3023,       241,
   67.3225,       246,
   67.3427,       223,
    67.363,       262,
   67.3832,       242,
   67.4034,       228,
   67.4236,       262,
   67.4438,       281,
   67.4641,       262,
   67.4843,       272,
   67.5045,       296,
   67.5247,       301,
   67.5449,       268,
   67.5652,       308,
   67.5854,       294,
   67.6056,       310,
   67.6258,       357,
    67.646,       314,
   67.6663,       319,
   67.6865,       329,
   67.7067,       293,
   67.7269,       351,
   67.7471,       342,
   67.7673,       346,
   67.7876,       328,
   67.8078,       331,
    67.828,       314,
   67.8482,       347,
   67.8684,       319,
   67.8887,       327,
   67.9089,       305,
   67.9291,       333,
   67.9493,       343,
   67.9695,       326,
   67.9898,       341,
     68.01,       327,
   68.0302,       316,
   68.0504,       331,
   68.0706,       308,
   68.0908,       305,
   68.1111,       328,
   68.1313,       313,
   68.1515,       301,
   68.1717,       282,
   68.1919,       306,
   68.2122,       290,
   68.2324,       272,
   68.2526,       312,
   68.2728,       291,
    68.293,       291,
   68.3133,       270,
   68.3335,       304,
   68.3537,       275,
   68.3739,       333,
   68.3941,       321,
   68.4143,       317,
   68.4346,       358,
   68.4548,       340,
    68.475,       348,
   68.4952,       390,
   68.5154,       396,
   68.5357,       390,
   68.5559,       403,
   68.5761,       423,
   68.5963,       462,
   68.6165,       435,
   68.6368,       438,
    68.657,       510,
   68.6772,       465,
   68.6974,       513,
   68.7176,       523,
   68.7378,       509,
   68.7581,       528,
   68.7783,       584,
   68.7985,       540,
   68.8187,       535,
   68.8389,       519,
   68.8592,       557,
   68.8794,       519,
   68.8996,       525,
   68.9198,       508,
     68.94,       478,
   68.9603,       489,
   68.9805,       472,
   69.0007,       457,
   69.0209,       469,
   69.0411,       448,
   69.0613,       497,
   69.0816,       411,
   69.1018,       431,
    69.122,       419,
   69.1422,       415,
   69.1624,       359,
   69.1827,       390,
   69.2029,       366,
   69.2231,       379,
   69.2433,       349,
   69.2635,       378,
   69.2838,       344,
    69.304,       362,
   69.3242,       349,
   69.3444,       332,
   69.3646,       326,
   69.3848,       311,
   69.4051,       292,
   69.4253,       296,
   69.4455,       314,
   69.4657,       292,
   69.4859,       272,
   69.5062,       282,
   69.5264,       267,
   69.5466,       304,
   69.5668,       252,
    69.587,       284,
   69.6073,       259,
   69.6275,       253,
   69.6477,       280,
   69.6679,       281,
   69.6881,       265,
   69.7083,       259,
   69.7286,       296,
   69.7488,       282,
    69.769,       277,
   69.7892,       269,
   69.8094,       302,
   69.8297,       293,
   69.8499,       248,
   69.8701,       289,
   69.8903,       289,
   69.9105,       276,
   69.9308,       250,
    69.951,       262,
   69.9712,       279,
   69.9914,       272,
   70.0116,       273,
   70.0318,       232,
   70.0521,       282,
