;RAW4.00
[RawHeader]
Date=10/22/2019
EstimatedTotalTime=1635.75
FurtherDQLReading=0
HardwareIndicator=65519
MeasuredTotalTime=1635.75
MeasurementFlag=1
NumberOfMeasuredRanges=1
NumberOfRanges=1
Time=15:53:22

[VarInfo]
Type=USER
Flags=0
Value=Bruker Service

[VarInfo]
Type=SAMPLEID
Flags=0
Value=Commander Sample ID

[VarInfo]
Type=COMMENT
Flags=0
Value=

[VarInfo]
Type=UTF
Flags=0
Value=

[VarInfo]
Type=CREATOR
Flags=0
Value=BrmlToV4Converter

[VarInfo]
Type=CREATOR_VERSION
Flags=0
Value=7.3.0.0

[HardwareConfiguration]
AbsorptionFactor=9999
ActivateAbsorber=0
Alpha1=1.78897
Alpha2=1.79285
AlphaAverage=1.79026
AlphaRatio=0.5
Analyzer=0
Anode=Co
AntiScatteringSlit=9999
BeamOpticsFlags=0
Beta=1.62079
BetaRelativeIntensity=0
DeactivateAbsorber=0
DetectorSlit=9999
DivergenceSlit=1
GoniometerControl=0
GoniometerDiameter=282
GoniometerModel=256
GoniometerStage=7
Monochromator=0
NearSampleSlit=9999
PrimarySollerSlit=9999
SampleChanger=0
SecondSollerSlit=9999
SynchronousAxis=0
ThinFilmAttachment=9999
WaveUnit=A

[RangeHeader]
ActuallyUsedLambda=1.79026
AdditionalDetectorMask=257
DataRecordLength=4
DelayTime=0
DisplayPlaneNumber=0
EstimatedScanTime=1636
ExtraParametersMask=0
GeneratorCurrent=10
GeneratorVoltage=30
Increment=0.0202188
Increment3=0
NumberOfCompletedData=2971
NumberOfCounts=1
NumberOfDetectors=0
NumberOfDrives=2
NumberOfEncoderDrives=0
NumberOfMeasuredData=2971
NumberOfVaryingParameters=0
RangeStartTime=0
RotationSpeed=1
ScanMode=1
ScanType=Locked Coupled
SimulatedMeasConditions=0
SlitChangerIn=0
SmootingWidth=0
Start=10.0023
Steps=2971
SynchronousRotation=0
Time=96

[VarInfo]
Type=PSD_DISCRIM
Flags=0
Value=0.11;0.25

[PSD]
ActualTwoTheta=9999
FirstUsedChannel=0
FixedPSD=0
PSDOpening=5.823
PSDType=5

[Drive]
DriveFlags=1
DriveName=2Theta
DriveNumber=2
DriveOffset=0
OffsetIndex=0
OscillationAmplitude=0
OscillationSpeed=0
StartPosition=10.0023

[Drive]
DriveFlags=1
DriveName=Theta
DriveNumber=1
DriveOffset=0
OffsetIndex=0
OscillationAmplitude=0
OscillationSpeed=0
StartPosition=5.00117

[Data]
     Angle,       PSD,
   10.0023,       972,
   10.0226,      1023,
   10.0428,      1076,
    10.063,      1036,
   10.0832,       977,
   10.1034,      1058,
   10.1237,       986,
   10.1439,      1005,
   10.1641,       983,
   10.1843,       963,
   10.2045,       999,
   10.2247,       927,
    10.245,       942,
   10.2652,       993,
   10.2854,       981,
   10.3056,       958,
   10.3258,       933,
   10.3461,       943,
   10.3663,       964,
   10.3865,      1000,
   10.4067,       980,
   10.4269,      1006,
   10.4472,       945,
   10.4674,       949,
   10.4876,       951,
   10.5078,      1017,
    10.528,      1010,
   10.5482,       995,
   10.5685,       991,
   10.5887,       930,
   10.6089,       983,
   10.6291,       925,
   10.6493,       960,
   10.6696,       956,
   10.6898,       972,
     10.71,       984,
   10.7302,       931,
   10.7504,       970,
   10.7707,       897,
   10.7909,       975,
   10.8111,       921,
   10.8313,       932,
   10.8515,       897,
   10.8717,       927,
    10.892,       989,
   10.9122,       971,
   10.9324,       942,
   10.9526,       926,
   10.9728,       947,
   10.9931,       914,
   11.0133,       883,
   11.0335,       967,
   11.0537,       903,
   11.0739,       900,
   11.0942,       897,
   11.1144,       965,
   11.1346,       893,
   11.1548,       927,
    11.175,       918,
   11.1952,       865,
   11.2155,       933,
   11.2357,       971,
   11.2559,       906,
   11.2761,       929,
   11.2963,       937,
   11.3166,       921,
   11.3368,       906,
    11.357,       920,
   11.3772,       955,
   11.3974,       908,
   11.4177,       924,
   11.4379,       899,
   11.4581,       901,
   11.4783,       911,
   11.4985,       948,
   11.5187,       929,
    11.539,       885,
   11.5592,       891,
   11.5794,       917,
   11.5996,       920,
   11.6198,       889,
   11.6401,       893,
   11.6603,       928,
   11.6805,       968,
   11.7007,       898,
   11.7209,       936,
   11.7412,       898,
   11.7614,       948,
   11.7816,       896,
   11.8018,       917,
    11.822,       877,
   11.8422,       878,
   11.8625,       974,
   11.8827,       906,
   11.9029,       893,
   11.9231,       949,
   11.9433,       882,
   11.9636,       972,
   11.9838,       913,
    12.004,       905,
   12.0242,       865,
   12.0444,       876,
   12.0647,       850,
   12.0849,       973,
   12.1051,       895,
   12.1253,       912,
   12.1455,       953,
   12.1657,       862,
    12.186,       905,
   12.2062,       849,
   12.2264,       833,
   12.2466,       824,
   12.2668,       879,
   12.2871,       961,
   12.3073,       842,
   12.3275,       858,
   12.3477,       897,
   12.3679,       922,
   12.3882,       904,
   12.4084,       863,
   12.4286,       877,
   12.4488,       926,
    12.469,       936,
   12.4892,       902,
   12.5095,       916,
   12.5297,       891,
   12.5499,       931,
   12.5701,       874,
   12.5903,       915,
   12.6106,       903,
   12.6308,       836,
    12.651,       901,
   12.6712,       844,
   12.6914,       900,
   12.7117,       935,
   12.7319,       911,
   12.7521,       889,
   12.7723,       802,
   12.7925,       854,
   12.8127,       859,
    12.833,       897,
   12.8532,       877,
   12.8734,       821,
   12.8936,       885,
   12.9138,       980,
   12.9341,       887,
   12.9543,       834,
   12.9745,       896,
   12.9947,       909,
   13.0149,       882,
   13.0352,       852,
   13.0554,       879,
   13.0756,       855,
   13.0958,       868,
    13.116,       825,
   13.1362,       811,
   13.1565,       842,
   13.1767,       854,
   13.1969,       851,
   13.2171,       876,
   13.2373,       921,
   13.2576,       878,
   13.2778,       861,
    13.298,       808,
   13.3182,       861,
   13.3384,       861,
   13.3587,       905,
   13.3789,       851,
   13.3991,       845,
   13.4193,       896,
   13.4395,       840,
   13.4597,       860,
     13.48,       860,
   13.5002,       865,
   13.5204,       838,
   13.5406,       853,
   13.5608,       825,
   13.5811,       878,
   13.6013,       817,
   13.6215,       815,
   13.6417,       794,
   13.6619,       884,
   13.6822,       894,
   13.7024,       834,
   13.7226,       845,
   13.7428,       822,
    13.763,       774,
   13.7832,       839,
   13.8035,       857,
   13.8237,       851,
   13.8439,       866,
   13.8641,       818,
   13.8843,       870,
   13.9046,       854,
   13.9248,       838,
    13.945,       818,
   13.9652,       853,
   13.9854,       835,
   14.0057,       842,
   14.0259,       824,
   14.0461,       840,
   14.0663,       909,
   14.0865,       766,
   14.1068,       854,
    14.127,       810,
   14.1472,       829,
   14.1674,       841,
   14.1876,       876,
   14.2078,       832,
   14.2281,       843,
   14.2483,       803,
   14.2685,       791,
   14.2887,       788,
   14.3089,       814,
   14.3292,       775,
   14.3494,       844,
   14.3696,       855,
   14.3898,       837,
     14.41,       805,
   14.4303,       819,
   14.4505,       857,
   14.4707,       831,
   14.4909,       887,
   14.5111,       815,
   14.5313,       819,
   14.5516,       829,
   14.5718,       798,
    14.592,       848,
   14.6122,       773,
   14.6324,       845,
   14.6527,       830,
   14.6729,       830,
   14.6931,       834,
   14.7133,       797,
   14.7335,       809,
   14.7538,       803,
    14.774,       859,
   14.7942,       756,
   14.8144,       804,
   14.8346,       808,
   14.8548,       744,
   14.8751,       763,
   14.8953,       817,
   14.9155,       801,
   14.9357,       811,
   14.9559,       812,
   14.9762,       832,
   14.9964,       857,
   15.0166,       821,
   15.0368,       773,
    15.057,       771,
   15.0773,       826,
   15.0975,       763,
   15.1177,       788,
   15.1379,       786,
   15.1581,       816,
   15.1783,       740,
   15.1986,       852,
   15.2188,       859,
    15.239,       757,
   15.2592,       823,
   15.2794,       750,
   15.2997,       770,
   15.3199,       855,
   15.3401,       755,
   15.3603,       845,
   15.3805,       759,
   15.4008,       779,
    15.421,       844,
   15.4412,       798,
   15.4614,       788,
   15.4816,       722,
   15.5018,       837,
   15.5221,       802,
   15.5423,       806,
   15.5625,       808,
   15.5827,       783,
   15.6029,       781,
   15.6232,       788,
   15.6434,       762,
   15.6636,       717,
   15.6838,       765,
    15.704,       793,
   15.7243,       786,
   15.7445,       789,
   15.7647,       758,
   15.7849,       779,
   15.8051,       791,
   15.8253,       801,
   15.8456,       813,
   15.8658,       842,
    15.886,       743,
   15.9062,       772,
   15.9264,       746,
   15.9467,       769,
   15.9669,       722,
   15.9871,       798,
   16.0073,       769,
   16.0275,       809,
   16.0478,       798,
    16.068,       789,
   16.0882,       785,
   16.1084,       759,
   16.1286,       794,
   16.1488,       802,
   16.1691,       766,
   16.1893,       748,
   16.2095,       827,
   16.2297,       783,
   16.2499,       753,
   16.2702,       787,
   16.2904,       794,
   16.3106,       777,
   16.3308,       832,
    16.351,       789,
   16.3713,       732,
   16.3915,       832,
   16.4117,       760,
   16.4319,       785,
   16.4521,       760,
   16.4723,       771,
   16.4926,       813,
   16.5128,       776,
    16.533,       821,
   16.5532,       786,
   16.5734,       755,
   16.5937,       762,
   16.6139,       780,
   16.6341,       769,
   16.6543,       750,
   16.6745,       786,
   16.6948,       847,
    16.715,       803,
   16.7352,       807,
   16.7554,       871,
   16.7756,       827,
   16.7958,       816,
   16.8161,       822,
   16.8363,       796,
   16.8565,       747,
   16.8767,       807,
   16.8969,       772,
   16.9172,       742,
   16.9374,       761,
   16.9576,       754,
   16.9778,       792,
    16.998,       749,
   17.0183,       816,
   17.0385,       748,
   17.0587,       777,
   17.0789,       775,
   17.0991,       791,
   17.1193,       834,
   17.1396,       792,
   17.1598,       823,
     17.18,       784,
   17.2002,       876,
   17.2204,       890,
   17.2407,       821,
   17.2609,       863,
   17.2811,       857,
   17.3013,       867,
   17.3215,       844,
   17.3418,       829,
    17.362,       791,
   17.3822,       767,
   17.4024,       788,
   17.4226,       762,
   17.4428,       745,
   17.4631,       760,
   17.4833,       759,
   17.5035,       788,
   17.5237,       726,
   17.5439,       781,
   17.5642,       749,
   17.5844,       782,
   17.6046,       780,
   17.6248,       781,
    17.645,       771,
   17.6653,       719,
   17.6855,       797,
   17.7057,       740,
   17.7259,       744,
   17.7461,       721,
   17.7663,       764,
   17.7866,       765,
   17.8068,       707,
    17.827,       728,
   17.8472,       790,
   17.8674,       777,
   17.8877,       750,
   17.9079,       746,
   17.9281,       772,
   17.9483,       763,
   17.9685,       759,
   17.9888,       746,
    18.009,       719,
   18.0292,       713,
   18.0494,       734,
   18.0696,       787,
   18.0898,       758,
   18.1101,       712,
   18.1303,       687,
   18.1505,       733,
   18.1707,       746,
   18.1909,       697,
   18.2112,       709,
   18.2314,       730,
   18.2516,       735,
   18.2718,       749,
    18.292,       762,
   18.3123,       748,
   18.3325,       730,
   18.3527,       751,
   18.3729,       730,
   18.3931,       725,
   18.4133,       710,
   18.4336,       768,
   18.4538,       725,
    18.474,       752,
   18.4942,       724,
   18.5144,       730,
   18.5347,       733,
   18.5549,       710,
   18.5751,       707,
   18.5953,       747,
   18.6155,       720,
   18.6358,       712,
    18.656,       744,
   18.6762,       705,
   18.6964,       705,
   18.7166,       671,
   18.7368,       691,
   18.7571,       753,
   18.7773,       719,
   18.7975,       722,
   18.8177,       734,
   18.8379,       730,
   18.8582,       684,
   18.8784,       772,
   18.8986,       763,
   18.9188,       747,
    18.939,       705,
   18.9593,       705,
   18.9795,       716,
   18.9997,       710,
   19.0199,       716,
   19.0401,       746,
   19.0603,       730,
   19.0806,       772,
   19.1008,       754,
    19.121,       784,
   19.1412,       746,
   19.1614,       689,
   19.1817,       755,
   19.2019,       778,
   19.2221,       754,
   19.2423,       780,
   19.2625,       719,
   19.2828,       715,
    19.303,       740,
   19.3232,       737,
   19.3434,       732,
   19.3636,       766,
   19.3838,       745,
   19.4041,       693,
   19.4243,       691,
   19.4445,       726,
   19.4647,       721,
   19.4849,       746,
   19.5052,       694,
   19.5254,       717,
   19.5456,       766,
   19.5658,       757,
    19.586,       736,
   19.6063,       744,
   19.6265,       753,
   19.6467,       731,
   19.6669,       703,
   19.6871,       744,
   19.7073,       758,
   19.7276,       743,
   19.7478,       721,
    19.768,       723,
   19.7882,       751,
   19.8084,       755,
   19.8287,       753,
   19.8489,       767,
   19.8691,       699,
   19.8893,       710,
   19.9095,       749,
   19.9298,       744,
     19.95,       754,
   19.9702,       847,
   19.9904,       718,
   20.0106,       738,
   20.0308,       771,
   20.0511,       733,
   20.0713,       704,
   20.0915,       732,
   20.1117,       766,
   20.1319,       753,
   20.1522,       705,
   20.1724,       701,
   20.1926,       723,
   20.2128,       772,
    20.233,       735,
   20.2533,       702,
   20.2735,       735,
   20.2937,       722,
   20.3139,       778,
   20.3341,       733,
   20.3543,       718,
   20.3746,       692,
   20.3948,       713,
    20.415,       719,
   20.4352,       751,
   20.4554,       740,
   20.4757,       713,
   20.4959,       742,
   20.5161,       752,
   20.5363,       718,
   20.5565,       795,
   20.5768,       741,
    20.597,       732,
   20.6172,       695,
   20.6374,       726,
   20.6576,       791,
   20.6778,       764,
   20.6981,       739,
   20.7183,       740,
   20.7385,       737,
   20.7587,       704,
   20.7789,       715,
   20.7992,       730,
   20.8194,       734,
   20.8396,       764,
   20.8598,       719,
     20.88,       676,
   20.9003,       737,
   20.9205,       709,
   20.9407,       741,
   20.9609,       783,
   20.9811,       756,
   21.0013,       715,
   21.0216,       762,
   21.0418,       736,
    21.062,       748,
   21.0822,       709,
   21.1024,       715,
   21.1227,       709,
   21.1429,       762,
   21.1631,       748,
   21.1833,       740,
   21.2035,       727,
   21.2238,       738,
    21.244,       736,
   21.2642,       728,
   21.2844,       774,
   21.3046,       739,
   21.3248,       734,
   21.3451,       696,
   21.3653,       754,
   21.3855,       722,
   21.4057,       699,
   21.4259,       734,
   21.4462,       758,
   21.4664,       729,
   21.4866,       742,
   21.5068,       728,
    21.527,       765,
   21.5473,       743,
   21.5675,       756,
   21.5877,       752,
   21.6079,       773,
   21.6281,       769,
   21.6483,       692,
   21.6686,       729,
   21.6888,       753,
    21.709,       694,
   21.7292,       813,
   21.7494,       776,
   21.7697,       740,
   21.7899,       715,
   21.8101,       762,
   21.8303,       773,
   21.8505,       732,
   21.8708,       760,
    21.891,       825,
   21.9112,       769,
   21.9314,       758,
   21.9516,       781,
   21.9718,       782,
   21.9921,       739,
   22.0123,       780,
   22.0325,       773,
   22.0527,       712,
   22.0729,       772,
   22.0932,       758,
   22.1134,       755,
   22.1336,       748,
   22.1538,       793,
    22.174,       778,
   22.1943,       769,
   22.2145,       665,
   22.2347,       777,
   22.2549,       761,
   22.2751,       774,
   22.2953,       726,
   22.3156,       739,
   22.3358,       797,
    22.356,       779,
   22.3762,       770,
   22.3964,       807,
   22.4167,       821,
   22.4369,       794,
   22.4571,       778,
   22.4773,       775,
   22.4975,       768,
   22.5178,       797,
    22.538,       791,
   22.5582,       777,
   22.5784,       782,
   22.5986,       763,
   22.6188,       856,
   22.6391,       746,
   22.6593,       731,
   22.6795,       810,
   22.6997,       810,
   22.7199,       721,
   22.7402,       817,
   22.7604,       828,
   22.7806,       781,
   22.8008,       742,
    22.821,       739,
   22.8413,       779,
   22.8615,       785,
   22.8817,       808,
   22.9019,       754,
   22.9221,       806,
   22.9423,       757,
   22.9626,       775,
   22.9828,       786,
    23.003,       798,
   23.0232,       806,
   23.0434,       832,
   23.0637,       781,
   23.0839,       780,
   23.1041,       814,
   23.1243,       800,
   23.1445,       805,
   23.1648,       816,
    23.185,       788,
   23.2052,       812,
   23.2254,       797,
   23.2456,       768,
   23.2658,       745,
   23.2861,       820,
   23.3063,       773,
   23.3265,       765,
   23.3467,       741,
   23.3669,       768,
   23.3872,       861,
   23.4074,       784,
   23.4276,       818,
   23.4478,       815,
    23.468,       771,
   23.4883,       761,
   23.5085,       839,
   23.5287,       814,
   23.5489,       768,
   23.5691,       779,
   23.5893,       759,
   23.6096,       744,
   23.6298,       800,
     23.65,       773,
   23.6702,       767,
   23.6904,       818,
   23.7107,       788,
   23.7309,       794,
   23.7511,       819,
   23.7713,       767,
   23.7915,       831,
   23.8118,       762,
    23.832,       757,
   23.8522,       791,
   23.8724,       821,
   23.8926,       803,
   23.9128,       815,
   23.9331,       772,
   23.9533,       768,
   23.9735,       781,
   23.9937,       821,
   24.0139,       721,
   24.0342,       797,
   24.0544,       698,
   24.0746,       751,
   24.0948,       729,
    24.115,       733,
   24.1353,       784,
   24.1555,       825,
   24.1757,       758,
   24.1959,       750,
   24.2161,       748,
   24.2363,       751,
   24.2566,       728,
   24.2768,       799,
    24.297,       809,
   24.3172,       800,
   24.3374,       796,
   24.3577,       763,
   24.3779,       745,
   24.3981,       709,
   24.4183,       730,
   24.4385,       757,
   24.4588,       813,
    24.479,       738,
   24.4992,       786,
   24.5194,       741,
   24.5396,       767,
   24.5599,       755,
   24.5801,       765,
   24.6003,       826,
   24.6205,       744,
   24.6407,       803,
   24.6609,       769,
   24.6812,       831,
   24.7014,       759,
   24.7216,       764,
   24.7418,       804,
    24.762,       748,
   24.7823,       786,
   24.8025,       802,
   24.8227,       786,
   24.8429,       787,
   24.8631,       835,
   24.8834,       746,
   24.9036,       798,
   24.9238,       739,
    24.944,       768,
   24.9642,       805,
   24.9844,       740,
   25.0047,       750,
   25.0249,       793,
   25.0451,       761,
   25.0653,       745,
   25.0855,       762,
   25.1058,       755,
    25.126,       753,
   25.1462,       800,
   25.1664,       760,
   25.1866,       791,
   25.2069,       780,
   25.2271,       805,
   25.2473,       758,
   25.2675,       795,
   25.2877,       781,
   25.3079,       827,
   25.3282,       826,
   25.3484,       804,
   25.3686,       777,
   25.3888,       779,
    25.409,       770,
   25.4293,       816,
   25.4495,       826,
   25.4697,       754,
   25.4899,       806,
   25.5101,       824,
   25.5304,       837,
   25.5506,       868,
   25.5708,       860,
    25.591,       809,
   25.6112,       892,
   25.6314,       840,
   25.6517,       855,
   25.6719,       857,
   25.6921,       831,
   25.7123,       805,
   25.7325,       787,
   25.7528,       818,
    25.773,       843,
   25.7932,       805,
   25.8134,       792,
   25.8336,       888,
   25.8539,       816,
   25.8741,       839,
   25.8943,       795,
   25.9145,       802,
   25.9347,       821,
   25.9549,       798,
   25.9752,       793,
   25.9954,       785,
   26.0156,       872,
   26.0358,       850,
    26.056,       715,
   26.0763,       740,
   26.0965,       795,
   26.1167,       755,
   26.1369,       774,
   26.1571,       824,
   26.1774,       803,
   26.1976,       753,
   26.2178,       727,
    26.238,       788,
   26.2582,       724,
   26.2784,       711,
   26.2987,       741,
   26.3189,       736,
   26.3391,       775,
   26.3593,       776,
   26.3795,       741,
   26.3998,       826,
     26.42,       739,
   26.4402,       744,
   26.4604,       731,
   26.4806,       792,
   26.5009,       718,
   26.5211,       774,
   26.5413,       713,
   26.5615,       736,
   26.5817,       728,
   26.6019,       795,
   26.6222,       664,
   26.6424,       729,
   26.6626,       743,
   26.6828,       727,
    26.703,       762,
   26.7233,       795,
   26.7435,       749,
   26.7637,       742,
   26.7839,       722,
   26.8041,       769,
   26.8244,       756,
   26.8446,       733,
   26.8648,       750,
    26.885,       769,
   26.9052,       761,
   26.9254,       698,
   26.9457,       796,
   26.9659,       720,
   26.9861,       747,
   27.0063,       784,
   27.0265,       762,
   27.0468,       782,
    27.067,       749,
   27.0872,       847,
   27.1074,       857,
   27.1276,       832,
   27.1479,       813,
   27.1681,       895,
   27.1883,       867,
   27.2085,       947,
   27.2287,      1017,
   27.2489,       981,
   27.2692,       947,
   27.2894,      1018,
   27.3096,      1008,
   27.3298,       984,
     27.35,      1069,
   27.3703,       984,
   27.3905,       961,
   27.4107,       925,
   27.4309,       957,
   27.4511,       930,
   27.4714,       843,
   27.4916,       827,
   27.5118,       851,
    27.532,       759,
   27.5522,       872,
   27.5724,       810,
   27.5927,       779,
   27.6129,       752,
   27.6331,       782,
   27.6533,       753,
   27.6735,       782,
   27.6938,       804,
    27.714,       795,
   27.7342,       787,
   27.7544,       782,
   27.7746,       723,
   27.7949,       706,
   27.8151,       708,
   27.8353,       712,
   27.8555,       734,
   27.8757,       750,
   27.8959,       738,
   27.9162,       789,
   27.9364,       711,
   27.9566,       699,
   27.9768,       661,
    27.997,       653,
   28.0173,       738,
   28.0375,       682,
   28.0577,       737,
   28.0779,       740,
   28.0981,       703,
   28.1184,       675,
   28.1386,       701,
   28.1588,       695,
    28.179,       713,
   28.1992,       711,
   28.2194,       652,
   28.2397,       693,
   28.2599,       679,
   28.2801,       679,
   28.3003,       667,
   28.3205,       672,
   28.3408,       697,
    28.361,       694,
   28.3812,       682,
   28.4014,       723,
   28.4216,       714,
   28.4419,       719,
   28.4621,       697,
   28.4823,       673,
   28.5025,       635,
   28.5227,       710,
   28.5429,       706,
   28.5632,       648,
   28.5834,       700,
   28.6036,       693,
   28.6238,       708,
    28.644,       699,
   28.6643,       679,
   28.6845,       649,
   28.7047,       707,
   28.7249,       692,
   28.7451,       722,
   28.7654,       710,
   28.7856,       681,
   28.8058,       638,
    28.826,       644,
   28.8462,       657,
   28.8664,       735,
   28.8867,       673,
   28.9069,       724,
   28.9271,       675,
   28.9473,       687,
   28.9675,       668,
   28.9878,       680,
    29.008,       647,
   29.0282,       729,
   29.0484,       644,
   29.0686,       691,
   29.0889,       635,
   29.1091,       693,
   29.1293,       619,
   29.1495,       644,
   29.1697,       657,
   29.1899,       701,
   29.2102,       696,
   29.2304,       669,
   29.2506,       604,
   29.2708,       653,
    29.291,       680,
   29.3113,       663,
   29.3315,       671,
   29.3517,       624,
   29.3719,       659,
   29.3921,       715,
   29.4124,       636,
   29.4326,       682,
   29.4528,       650,
    29.473,       649,
   29.4932,       629,
   29.5134,       694,
   29.5337,       664,
   29.5539,       663,
   29.5741,       635,
   29.5943,       647,
   29.6145,       723,
   29.6348,       649,
    29.655,       672,
   29.6752,       638,
   29.6954,       698,
   29.7156,       694,
   29.7359,       674,
   29.7561,       650,
   29.7763,       733,
   29.7965,       696,
   29.8167,       690,
   29.8369,       663,
   29.8572,       750,
   29.8774,       691,
   29.8976,       727,
   29.9178,       720,
    29.938,       667,
   29.9583,       732,
   29.9785,       777,
   29.9987,       736,
   30.0189,       723,
   30.0391,       724,
   30.0594,       687,
   30.0796,       737,
   30.0998,       704,
     30.12,       727,
   30.1402,       716,
   30.1604,       788,
   30.1807,       734,
   30.2009,       713,
   30.2211,       746,
   30.2413,       696,
   30.2615,       765,
   30.2818,       788,
    30.302,       735,
   30.3222,       793,
   30.3424,       829,
   30.3626,       837,
   30.3829,       811,
   30.4031,       835,
   30.4233,       902,
   30.4435,       934,
   30.4637,      1044,
   30.4839,      1132,
   30.5042,      1248,
   30.5244,      1376,
   30.5446,      1573,
   30.5648,      1872,
    30.585,      2146,
   30.6053,      2310,
   30.6255,      2330,
   30.6457,      2403,
   30.6659,      2345,
   30.6861,      2007,
   30.7064,      1969,
   30.7266,      1601,
   30.7468,      1400,
    30.767,      1269,
   30.7872,      1142,
   30.8074,       989,
   30.8277,       898,
   30.8479,       913,
   30.8681,       844,
   30.8883,       873,
   30.9085,       845,
   30.9288,       790,
    30.949,       813,
   30.9692,       716,
   30.9894,       769,
   31.0096,       681,
   31.0299,       711,
   31.0501,       726,
   31.0703,       700,
   31.0905,       685,
   31.1107,       682,
   31.1309,       688,
   31.1512,       728,
   31.1714,       687,
   31.1916,       754,
   31.2118,       726,
    31.232,       715,
   31.2523,       725,
   31.2725,       705,
   31.2927,       698,
   31.3129,       813,
   31.3331,       719,
   31.3534,       741,
   31.3736,       763,
   31.3938,       701,
    31.414,       705,
   31.4342,       744,
   31.4544,       794,
   31.4747,       753,
   31.4949,       806,
   31.5151,       739,
   31.5353,       840,
   31.5555,       821,
   31.5758,       840,
    31.596,       838,
   31.6162,       851,
   31.6364,       901,
   31.6566,      1046,
   31.6769,      1065,
   31.6971,      1080,
   31.7173,      1190,
   31.7375,      1269,
   31.7577,      1410,
   31.7779,      1399,
   31.7982,      1477,
   31.8184,      1454,
   31.8386,      1381,
   31.8588,      1298,
    31.879,      1283,
   31.8993,      1246,
   31.9195,      1225,
   31.9397,      1201,
   31.9599,      1139,
   31.9801,      1171,
   32.0004,      1176,
   32.0206,      1133,
   32.0408,      1004,
    32.061,       931,
   32.0812,       952,
   32.1014,       819,
   32.1217,       822,
   32.1419,       745,
   32.1621,       721,
   32.1823,       696,
   32.2025,       670,
   32.2228,       653,
    32.243,       684,
   32.2632,       680,
   32.2834,       651,
   32.3036,       611,
   32.3239,       621,
   32.3441,       602,
   32.3643,       585,
   32.3845,       625,
   32.4047,       621,
   32.4249,       632,
   32.4452,       647,
   32.4654,       628,
   32.4856,       596,
   32.5058,       581,
    32.526,       563,
   32.5463,       597,
   32.5665,       574,
   32.5867,       601,
   32.6069,       589,
   32.6271,       605,
   32.6474,       577,
   32.6676,       578,
   32.6878,       588,
    32.708,       579,
   32.7282,       575,
   32.7484,       642,
   32.7687,       561,
   32.7889,       558,
   32.8091,       602,
   32.8293,       588,
   32.8495,       586,
   32.8698,       592,
     32.89,       618,
   32.9102,       599,
   32.9304,       526,
   32.9506,       591,
   32.9709,       565,
   32.9911,       544,
   33.0113,       617,
   33.0315,       576,
   33.0517,       556,
   33.0719,       585,
   33.0922,       592,
   33.1124,       562,
   33.1326,       557,
   33.1528,       592,
    33.173,       544,
   33.1933,       560,
   33.2135,       620,
   33.2337,       578,
   33.2539,       588,
   33.2741,       608,
   33.2944,       597,
   33.3146,       569,
   33.3348,       551,
    33.355,       575,
   33.3752,       574,
   33.3954,       575,
   33.4157,       589,
   33.4359,       649,
   33.4561,       640,
   33.4763,       658,
   33.4965,       677,
   33.5168,       682,
    33.537,       660,
   33.5572,       593,
   33.5774,       662,
   33.5976,       612,
   33.6179,       585,
   33.6381,       569,
   33.6583,       567,
   33.6785,       564,
   33.6987,       584,
   33.7189,       593,
   33.7392,       581,
   33.7594,       570,
   33.7796,       525,
   33.7998,       616,
     33.82,       588,
   33.8403,       591,
   33.8605,       580,
   33.8807,       583,
   33.9009,       578,
   33.9211,       572,
   33.9414,       612,
   33.9616,       638,
   33.9818,       607,
    34.002,       572,
   34.0222,       551,
   34.0424,       628,
   34.0627,       637,
   34.0829,       641,
   34.1031,       567,
   34.1233,       629,
   34.1435,       618,
   34.1638,       622,
    34.184,       641,
   34.2042,       651,
   34.2244,       619,
   34.2446,       649,
   34.2649,       655,
   34.2851,       669,
   34.3053,       745,
   34.3255,       715,
   34.3457,       702,
   34.3659,       675,
   34.3862,       685,
   34.4064,       723,
   34.4266,       752,
   34.4468,       788,
    34.467,       820,
   34.4873,       858,
   34.5075,       957,
   34.5277,       906,
   34.5479,      1091,
   34.5681,      1162,
   34.5884,      1198,
   34.6086,      1332,
   34.6288,      1585,
    34.649,      1626,
   34.6692,      1751,
   34.6894,      1924,
   34.7097,      2041,
   34.7299,      2261,
   34.7501,      2530,
   34.7703,      2806,
   34.7905,      2908,
   34.8108,      3152,
    34.831,      3145,
   34.8512,      3413,
   34.8714,      3404,
   34.8916,      3395,
   34.9119,      3363,
   34.9321,      3263,
   34.9523,      3169,
   34.9725,      2949,
   34.9927,      2837,
   35.0129,      2651,
   35.0332,      2542,
   35.0534,      2355,
   35.0736,      2243,
   35.0938,      2140,
    35.114,      1994,
   35.1343,      1848,
   35.1545,      1781,
   35.1747,      1649,
   35.1949,      1514,
   35.2151,      1395,
   35.2354,      1331,
   35.2556,      1269,
   35.2758,      1213,
    35.296,      1141,
   35.3162,      1025,
   35.3365,      1026,
   35.3567,       977,
   35.3769,       900,
   35.3971,       904,
   35.4173,       898,
   35.4375,       859,
   35.4578,       818,
    35.478,       857,
   35.4982,       711,
   35.5184,       809,
   35.5386,       732,
   35.5589,       779,
   35.5791,       731,
   35.5993,       685,
   35.6195,       729,
   35.6397,       699,
     35.66,       658,
   35.6802,       702,
   35.7004,       611,
   35.7206,       648,
   35.7408,       659,
    35.761,       652,
   35.7813,       642,
   35.8015,       638,
   35.8217,       605,
   35.8419,       620,
   35.8621,       617,
   35.8824,       615,
   35.9026,       608,
   35.9228,       560,
    35.943,       581,
   35.9632,       576,
   35.9835,       601,
   36.0037,       570,
   36.0239,       531,
   36.0441,       550,
   36.0643,       532,
   36.0845,       628,
   36.1048,       605,
    36.125,       566,
   36.1452,       589,
   36.1654,       555,
   36.1856,       523,
   36.2059,       613,
   36.2261,       587,
   36.2463,       587,
   36.2665,       636,
   36.2867,       643,
    36.307,       665,
   36.3272,       647,
   36.3474,       656,
   36.3676,       600,
   36.3878,       665,
    36.408,       674,
   36.4283,       642,
   36.4485,       654,
   36.4687,       585,
   36.4889,       617,
   36.5091,       580,
   36.5294,       554,
   36.5496,       598,
   36.5698,       548,
     36.59,       626,
   36.6102,       593,
   36.6305,       630,
   36.6507,       616,
   36.6709,       609,
   36.6911,       670,
   36.7113,       652,
   36.7315,       676,
   36.7518,       684,
    36.772,       746,
   36.7922,       703,
   36.8124,       701,
   36.8326,       720,
   36.8529,       755,
   36.8731,       781,
   36.8933,       823,
   36.9135,       924,
   36.9337,      1091,
    36.954,      1269,
   36.9742,      1485,
   36.9944,      2065,
   37.0146,      2643,
   37.0348,      3242,
    37.055,      3841,
   37.0753,      4240,
   37.0955,      4579,
   37.1157,      4405,
   37.1359,      4126,
   37.1561,      3735,
   37.1764,      3033,
   37.1966,      2740,
   37.2168,      2200,
    37.237,      1842,
   37.2572,      1508,
   37.2775,      1147,
   37.2977,      1074,
   37.3179,       983,
   37.3381,       854,
   37.3583,       852,
   37.3785,       784,
   37.3988,       804,
    37.419,       802,
   37.4392,       744,
   37.4594,       691,
   37.4796,       649,
   37.4999,       681,
   37.5201,       659,
   37.5403,       679,
   37.5605,       650,
   37.5807,       623,
    37.601,       649,
   37.6212,       646,
   37.6414,       638,
   37.6616,       585,
   37.6818,       637,
    37.702,       601,
   37.7223,       613,
   37.7425,       627,
   37.7627,       580,
   37.7829,       586,
   37.8031,       572,
   37.8234,       606,
   37.8436,       552,
   37.8638,       567,
    37.884,       560,
   37.9042,       564,
   37.9245,       565,
   37.9447,       553,
   37.9649,       577,
   37.9851,       582,
   38.0053,       561,
   38.0255,       590,
   38.0458,       580,
    38.066,       556,
   38.0862,       580,
   38.1064,       600,
   38.1266,       555,
   38.1469,       613,
   38.1671,       562,
   38.1873,       593,
   38.2075,       612,
   38.2277,       635,
    38.248,       701,
   38.2682,       718,
   38.2884,       704,
   38.3086,       691,
   38.3288,       687,
    38.349,       659,
   38.3693,       668,
   38.3895,       687,
   38.4097,       680,
   38.4299,       710,
   38.4501,       692,
   38.4704,       680,
   38.4906,       701,
   38.5108,       718,
    38.531,       777,
   38.5512,       729,
   38.5715,       800,
   38.5917,       793,
   38.6119,       909,
   38.6321,       995,
   38.6523,      1080,
   38.6725,      1238,
   38.6928,      1353,
    38.713,      1374,
   38.7332,      1441,
   38.7534,      1339,
   38.7736,      1337,
   38.7939,      1253,
   38.8141,      1222,
   38.8343,      1014,
   38.8545,       923,
   38.8747,       833,
    38.895,       767,
   38.9152,       766,
   38.9354,       658,
   38.9556,       630,
   38.9758,       648,
    38.996,       591,
   39.0163,       603,
   39.0365,       562,
   39.0567,       575,
   39.0769,       578,
   39.0971,       584,
   39.1174,       594,
   39.1376,       573,
   39.1578,       511,
    39.178,       546,
   39.1982,       577,
   39.2185,       546,
   39.2387,       505,
   39.2589,       566,
   39.2791,       491,
   39.2993,       545,
   39.3195,       516,
   39.3398,       570,
     39.36,       558,
   39.3802,       503,
   39.4004,       489,
   39.4206,       467,
   39.4409,       505,
   39.4611,       492,
   39.4813,       532,
   39.5015,       521,
   39.5217,       512,
    39.542,       547,
   39.5622,       517,
   39.5824,       541,
   39.6026,       518,
   39.6228,       556,
    39.643,       485,
   39.6633,       485,
   39.6835,       502,
   39.7037,       529,
   39.7239,       524,
   39.7441,       535,
   39.7644,       488,
   39.7846,       534,
   39.8048,       522,
    39.825,       476,
   39.8452,       569,
   39.8655,       528,
   39.8857,       511,
   39.9059,       536,
   39.9261,       481,
   39.9463,       540,
   39.9665,       542,
   39.9868,       475,
    40.007,       490,
   40.0272,       505,
   40.0474,       531,
   40.0676,       527,
   40.0879,       531,
   40.1081,       526,
   40.1283,       523,
   40.1485,       516,
   40.1687,       501,
    40.189,       467,
   40.2092,       552,
   40.2294,       489,
   40.2496,       522,
   40.2698,       543,
     40.29,       494,
   40.3103,       514,
   40.3305,       520,
   40.3507,       559,
   40.3709,       552,
   40.3911,       504,
   40.4114,       506,
   40.4316,       546,
   40.4518,       514,
    40.472,       571,
   40.4922,       499,
   40.5125,       541,
   40.5327,       528,
   40.5529,       498,
   40.5731,       492,
   40.5933,       490,
   40.6135,       523,
   40.6338,       560,
    40.654,       526,
   40.6742,       521,
   40.6944,       546,
   40.7146,       526,
   40.7349,       548,
   40.7551,       525,
   40.7753,       552,
   40.7955,       529,
   40.8157,       492,
    40.836,       547,
   40.8562,       542,
   40.8764,       518,
   40.8966,       516,
   40.9168,       485,
    40.937,       512,
   40.9573,       516,
   40.9775,       493,
   40.9977,       503,
   41.0179,       482,
   41.0381,       529,
   41.0584,       468,
   41.0786,       510,
   41.0988,       534,
    41.119,       569,
   41.1392,       526,
   41.1595,       549,
   41.1797,       519,
   41.1999,       492,
   41.2201,       521,
   41.2403,       548,
   41.2605,       533,
   41.2808,       499,
    41.301,       508,
   41.3212,       547,
   41.3414,       498,
   41.3616,       494,
   41.3819,       473,
   41.4021,       488,
   41.4223,       566,
   41.4425,       512,
   41.4627,       478,
    41.483,       526,
   41.5032,       505,
   41.5234,       516,
   41.5436,       503,
   41.5638,       504,
    41.584,       500,
   41.6043,       570,
   41.6245,       520,
   41.6447,       525,
   41.6649,       511,
   41.6851,       532,
   41.7054,       533,
   41.7256,       532,
   41.7458,       509,
    41.766,       522,
   41.7862,       551,
   41.8065,       518,
   41.8267,       544,
   41.8469,       566,
   41.8671,       544,
   41.8873,       547,
   41.9075,       605,
   41.9278,       533,
    41.948,       604,
   41.9682,       550,
   41.9884,       614,
   42.0086,       622,
   42.0289,       597,
   42.0491,       705,
   42.0693,       633,
   42.0895,       716,
   42.1097,       723,
     42.13,       749,
   42.1502,       809,
   42.1704,       843,
   42.1906,       876,
   42.2108,      1033,
    42.231,      1004,
   42.2513,      1044,
   42.2715,      1090,
   42.2917,      1071,
   42.3119,      1089,
   42.3321,      1059,
   42.3524,      1087,
   42.3726,      1058,
   42.3928,       949,
    42.413,       898,
   42.4332,       918,
   42.4535,       880,
   42.4737,       895,
   42.4939,       833,
   42.5141,       819,
   42.5343,       885,
   42.5545,       846,
   42.5748,       925,
    42.595,       891,
   42.6152,       867,
   42.6354,       961,
   42.6556,       885,
   42.6759,       922,
   42.6961,       893,
   42.7163,       868,
   42.7365,       914,
   42.7567,       840,
    42.777,       816,
   42.7972,       846,
   42.8174,       802,
   42.8376,       762,
   42.8578,       779,
    42.878,       778,
   42.8983,       714,
   42.9185,       688,
   42.9387,       654,
   42.9589,       646,
   42.9791,       646,
   42.9994,       696,
   43.0196,       637,
   43.0398,       575,
     43.06,       546,
   43.0802,       600,
   43.1005,       601,
   43.1207,       568,
   43.1409,       566,
   43.1611,       534,
   43.1813,       583,
   43.2015,       616,
   43.2218,       559,
    43.242,       558,
   43.2622,       546,
   43.2824,       568,
   43.3026,       559,
   43.3229,       531,
   43.3431,       518,
   43.3633,       515,
   43.3835,       519,
   43.4037,       549,
    43.424,       566,
   43.4442,       553,
   43.4644,       612,
   43.4846,       581,
   43.5048,       615,
    43.525,       627,
   43.5453,       669,
   43.5655,       683,
   43.5857,       698,
   43.6059,       687,
   43.6261,       679,
   43.6464,       691,
   43.6666,       697,
   43.6868,       618,
    43.707,       693,
   43.7272,       660,
   43.7475,       630,
   43.7677,       579,
   43.7879,       619,
   43.8081,       606,
   43.8283,       558,
   43.8485,       615,
   43.8688,       629,
    43.889,       561,
   43.9092,       550,
   43.9294,       560,
   43.9496,       541,
   43.9699,       523,
   43.9901,       550,
   44.0103,       571,
   44.0305,       590,
   44.0507,       557,
    44.071,       593,
   44.0912,       612,
   44.1114,       580,
   44.1316,       634,
   44.1518,       589,
    44.172,       658,
   44.1923,       671,
   44.2125,       737,
   44.2327,       829,
   44.2529,       807,
   44.2731,       935,
   44.2934,       999,
   44.3136,      1227,
   44.3338,      1132,
    44.354,      1189,
   44.3742,      1125,
   44.3945,      1055,
   44.4147,       996,
   44.4349,      1020,
   44.4551,       934,
   44.4753,       806,
   44.4955,       846,
   44.5158,       752,
    44.536,       690,
   44.5562,       677,
   44.5764,       635,
   44.5966,       659,
   44.6169,       594,
   44.6371,       572,
   44.6573,       576,
   44.6775,       587,
   44.6977,       612,
    44.718,       637,
   44.7382,       637,
   44.7584,       624,
   44.7786,       622,
   44.7988,       617,
    44.819,       646,
   44.8393,       673,
   44.8595,       705,
   44.8797,       782,
   44.8999,       772,
   44.9201,       795,
   44.9404,       847,
   44.9606,       871,
   44.9808,       899,
    45.001,       927,
   45.0212,       897,
   45.0415,       838,
   45.0617,       858,
   45.0819,       888,
   45.1021,       833,
   45.1223,       810,
   45.1425,       862,
   45.1628,       874,
    45.183,       814,
   45.2032,       820,
   45.2234,       868,
   45.2436,       798,
   45.2639,       773,
   45.2841,       754,
   45.3043,       728,
   45.3245,       688,
   45.3447,       664,
    45.365,       623,
   45.3852,       642,
   45.4054,       524,
   45.4256,       545,
   45.4458,       503,
    45.466,       544,
   45.4863,       553,
   45.5065,       504,
   45.5267,       481,
   45.5469,       525,
   45.5671,       473,
   45.5874,       531,
   45.6076,       476,
   45.6278,       521,
    45.648,       500,
   45.6682,       492,
   45.6885,       470,
   45.7087,       498,
   45.7289,       462,
   45.7491,       460,
   45.7693,       464,
   45.7895,       487,
   45.8098,       445,
     45.83,       464,
   45.8502,       465,
   45.8704,       470,
   45.8906,       456,
   45.9109,       493,
   45.9311,       465,
   45.9513,       468,
   45.9715,       448,
   45.9917,       462,
    46.012,       502,
   46.0322,       478,
   46.0524,       419,
   46.0726,       473,
   46.0928,       436,
   46.1131,       450,
   46.1333,       483,
   46.1535,       464,
   46.1737,       469,
   46.1939,       471,
   46.2141,       451,
   46.2344,       520,
   46.2546,       505,
   46.2748,       459,
    46.295,       475,
   46.3152,       513,
   46.3355,       506,
   46.3557,       518,
   46.3759,       482,
   46.3961,       520,
   46.4163,       475,
   46.4366,       526,
   46.4568,       560,
    46.477,       535,
   46.4972,       551,
   46.5174,       552,
   46.5376,       578,
   46.5579,       585,
   46.5781,       597,
   46.5983,       651,
   46.6185,       672,
   46.6387,       702,
    46.659,       727,
   46.6792,       779,
   46.6994,       768,
   46.7196,       767,
   46.7398,       813,
   46.7601,       874,
   46.7803,       903,
   46.8005,       889,
   46.8207,       866,
   46.8409,       933,
   46.8611,       893,
   46.8814,       945,
   46.9016,       903,
   46.9218,       905,
    46.942,       910,
   46.9622,       818,
   46.9825,       839,
   47.0027,       800,
   47.0229,       760,
   47.0431,       784,
   47.0633,       764,
   47.0836,       743,
   47.1038,       733,
    47.124,       711,
   47.1442,       680,
   47.1644,       666,
   47.1846,       650,
   47.2049,       636,
   47.2251,       640,
   47.2453,       622,
   47.2655,       616,
   47.2857,       586,
    47.306,       588,
   47.3262,       588,
   47.3464,       529,
   47.3666,       517,
   47.3868,       543,
   47.4071,       517,
   47.4273,       528,
   47.4475,       564,
   47.4677,       553,
   47.4879,       490,
   47.5081,       491,
   47.5284,       462,
   47.5486,       502,
   47.5688,       466,
    47.589,       515,
   47.6092,       497,
   47.6295,       484,
   47.6497,       509,
   47.6699,       473,
   47.6901,       492,
   47.7103,       460,
   47.7306,       489,
   47.7508,       490,
    47.771,       474,
   47.7912,       460,
   47.8114,       442,
   47.8316,       470,
   47.8519,       508,
   47.8721,       470,
   47.8923,       449,
   47.9125,       465,
   47.9327,       464,
    47.953,       472,
   47.9732,       466,
   47.9934,       466,
   48.0136,       526,
   48.0338,       534,
   48.0541,       521,
   48.0743,       490,
   48.0945,       519,
   48.1147,       488,
   48.1349,       546,
   48.1551,       553,
   48.1754,       550,
   48.1956,       540,
   48.2158,       556,
    48.236,       605,
   48.2562,       618,
   48.2765,       587,
   48.2967,       651,
   48.3169,       605,
   48.3371,       578,
   48.3573,       603,
   48.3776,       547,
   48.3978,       552,
    48.418,       542,
   48.4382,       513,
   48.4584,       522,
   48.4786,       503,
   48.4989,       494,
   48.5191,       478,
   48.5393,       479,
   48.5595,       411,
   48.5797,       437,
      48.6,       442,
   48.6202,       459,
   48.6404,       463,
   48.6606,       455,
   48.6808,       460,
   48.7011,       454,
   48.7213,       470,
   48.7415,       432,
   48.7617,       443,
   48.7819,       438,
   48.8021,       433,
   48.8224,       412,
   48.8426,       461,
   48.8628,       437,
    48.883,       401,
   48.9032,       454,
   48.9235,       407,
   48.9437,       422,
   48.9639,       422,
   48.9841,       463,
   49.0043,       391,
   49.0246,       402,
   49.0448,       410,
    49.065,       442,
   49.0852,       433,
   49.1054,       395,
   49.1256,       420,
   49.1459,       425,
   49.1661,       433,
   49.1863,       425,
   49.2065,       411,
   49.2267,       405,
    49.247,       408,
   49.2672,       409,
   49.2874,       417,
   49.3076,       446,
   49.3278,       436,
   49.3481,       433,
   49.3683,       393,
   49.3885,       424,
   49.4087,       420,
   49.4289,       426,
   49.4491,       399,
   49.4694,       467,
   49.4896,       394,
   49.5098,       436,
     49.53,       448,
   49.5502,       424,
   49.5705,       446,
   49.5907,       447,
   49.6109,       384,
   49.6311,       429,
   49.6513,       420,
   49.6716,       433,
   49.6918,       439,
    49.712,       454,
   49.7322,       449,
   49.7524,       449,
   49.7726,       404,
   49.7929,       424,
   49.8131,       433,
   49.8333,       437,
   49.8535,       411,
   49.8737,       423,
    49.894,       489,
   49.9142,       447,
   49.9344,       416,
   49.9546,       453,
   49.9748,       421,
   49.9951,       468,
   50.0153,       420,
   50.0355,       458,
   50.0557,       460,
   50.0759,       473,
   50.0961,       454,
   50.1164,       478,
   50.1366,       484,
   50.1568,       495,
    50.177,       514,
   50.1972,       589,
   50.2175,       591,
   50.2377,       632,
   50.2579,       647,
   50.2781,       671,
   50.2983,       702,
   50.3186,       705,
   50.3388,       740,
    50.359,       719,
   50.3792,       665,
   50.3994,       679,
   50.4196,       622,
   50.4399,       616,
   50.4601,       603,
   50.4803,       580,
   50.5005,       539,
   50.5207,       485,
    50.541,       503,
   50.5612,       508,
   50.5814,       453,
   50.6016,       448,
   50.6218,       447,
   50.6421,       452,
   50.6623,       444,
   50.6825,       459,
   50.7027,       473,
   50.7229,       439,
   50.7431,       402,
   50.7634,       416,
   50.7836,       448,
   50.8038,       413,
    50.824,       478,
   50.8442,       442,
   50.8645,       437,
   50.8847,       414,
   50.9049,       436,
   50.9251,       460,
   50.9453,       479,
   50.9656,       464,
   50.9858,       525,
    51.006,       475,
   51.0262,       535,
   51.0464,       543,
   51.0666,       533,
   51.0869,       542,
   51.1071,       577,
   51.1273,       594,
   51.1475,       599,
   51.1677,       628,
    51.188,       645,
   51.2082,       676,
   51.2284,       683,
   51.2486,       711,
   51.2688,       723,
   51.2891,       750,
   51.3093,       751,
   51.3295,       799,
   51.3497,       786,
   51.3699,       776,
   51.3901,       819,
   51.4104,       795,
   51.4306,       737,
   51.4508,       751,
    51.471,       756,
   51.4912,       720,
   51.5115,       705,
   51.5317,       681,
   51.5519,       660,
   51.5721,       648,
   51.5923,       626,
   51.6126,       568,
   51.6328,       600,
    51.653,       585,
   51.6732,       606,
   51.6934,       531,
   51.7136,       557,
   51.7339,       517,
   51.7541,       527,
   51.7743,       493,
   51.7945,       489,
   51.8147,       503,
    51.835,       491,
   51.8552,       513,
   51.8754,       464,
   51.8956,       477,
   51.9158,       499,
   51.9361,       435,
   51.9563,       481,
   51.9765,       492,
   51.9967,       423,
   52.0169,       437,
   52.0371,       464,
   52.0574,       470,
   52.0776,       419,
   52.0978,       430,
    52.118,       439,
   52.1382,       431,
   52.1585,       473,
   52.1787,       447,
   52.1989,       435,
   52.2191,       396,
   52.2393,       443,
   52.2596,       416,
   52.2798,       421,
      52.3,       457,
   52.3202,       437,
   52.3404,       435,
   52.3606,       407,
   52.3809,       403,
   52.4011,       399,
   52.4213,       397,
   52.4415,       406,
   52.4617,       374,
    52.482,       416,
   52.5022,       429,
   52.5224,       405,
   52.5426,       416,
   52.5628,       436,
   52.5831,       428,
   52.6033,       403,
   52.6235,       414,
   52.6437,       418,
   52.6639,       437,
   52.6841,       392,
   52.7044,       382,
   52.7246,       403,
   52.7448,       427,
    52.765,       394,
   52.7852,       396,
   52.8055,       410,
   52.8257,       407,
   52.8459,       425,
   52.8661,       431,
   52.8863,       425,
   52.9066,       443,
   52.9268,       417,
    52.947,       435,
   52.9672,       427,
   52.9874,       473,
   53.0076,       428,
   53.0279,       452,
   53.0481,       451,
   53.0683,       493,
   53.0885,       498,
   53.1087,       507,
    53.129,       525,
   53.1492,       552,
   53.1694,       601,
   53.1896,       662,
   53.2098,       664,
   53.2301,       742,
   53.2503,       850,
   53.2705,       922,
   53.2907,      1118,
   53.3109,      1272,
   53.3311,      1524,
   53.3514,      1624,
   53.3716,      1696,
   53.3918,      1672,
    53.412,      1655,
   53.4322,      1657,
   53.4525,      1618,
   53.4727,      1573,
   53.4929,      1443,
   53.5131,      1398,
   53.5333,      1263,
   53.5536,      1174,
   53.5738,      1095,
    53.594,      1033,
   53.6142,       939,
   53.6344,       918,
   53.6546,       882,
   53.6749,       891,
   53.6951,       968,
   53.7153,       946,
   53.7355,      1072,
   53.7557,      1086,
    53.776,      1124,
   53.7962,      1269,
   53.8164,      1417,
   53.8366,      1415,
   53.8568,      1484,
   53.8771,      1352,
   53.8973,      1282,
   53.9175,      1242,
   53.9377,      1212,
   53.9579,      1091,
   53.9781,      1097,
   53.9984,      1014,
   54.0186,       893,
   54.0388,       828,
    54.059,       674,
   54.0792,       699,
   54.0995,       647,
   54.1197,       597,
   54.1399,       566,
   54.1601,       526,
   54.1803,       505,
   54.2006,       460,
   54.2208,       476,
    54.241,       477,
   54.2612,       490,
   54.2814,       438,
   54.3016,       487,
   54.3219,       408,
   54.3421,       452,
   54.3623,       454,
   54.3825,       431,
   54.4027,       385,
    54.423,       429,
   54.4432,       415,
   54.4634,       435,
   54.4836,       423,
   54.5038,       407,
   54.5241,       413,
   54.5443,       411,
   54.5645,       386,
   54.5847,       399,
   54.6049,       393,
   54.6251,       383,
   54.6454,       366,
   54.6656,       386,
   54.6858,       388,
    54.706,       416,
   54.7262,       409,
   54.7465,       430,
   54.7667,       377,
   54.7869,       377,
   54.8071,       395,
   54.8273,       369,
   54.8476,       377,
   54.8678,       370,
    54.888,       356,
   54.9082,       355,
   54.9284,       384,
   54.9486,       389,
   54.9689,       351,
   54.9891,       373,
   55.0093,       415,
   55.0295,       363,
   55.0497,       373,
     55.07,       374,
   55.0902,       353,
   55.1104,       340,
   55.1306,       386,
   55.1508,       383,
   55.1711,       359,
   55.1913,       357,
   55.2115,       389,
   55.2317,       421,
   55.2519,       371,
   55.2721,       354,
   55.2924,       355,
   55.3126,       405,
   55.3328,       341,
    55.353,       374,
   55.3732,       400,
   55.3935,       382,
   55.4137,       383,
   55.4339,       397,
   55.4541,       391,
   55.4743,       421,
   55.4946,       428,
   55.5148,       359,
    55.535,       391,
   55.5552,       373,
   55.5754,       379,
   55.5956,       375,
   55.6159,       404,
   55.6361,       370,
   55.6563,       388,
   55.6765,       401,
   55.6967,       404,
    55.717,       382,
   55.7372,       412,
   55.7574,       362,
   55.7776,       448,
   55.7978,       435,
   55.8181,       436,
   55.8383,       467,
   55.8585,       440,
   55.8787,       437,
   55.8989,       441,
   55.9191,       443,
   55.9394,       436,
   55.9596,       484,
   55.9798,       440,
        56,       447,
   56.0202,       505,
   56.0405,       520,
   56.0607,       489,
   56.0809,       516,
   56.1011,       514,
   56.1213,       554,
   56.1416,       566,
   56.1618,       524,
    56.182,       534,
   56.2022,       525,
   56.2224,       567,
   56.2426,       554,
   56.2629,       601,
   56.2831,       552,
   56.3033,       577,
   56.3235,       620,
   56.3437,       588,
    56.364,       647,
   56.3842,       626,
   56.4044,       631,
   56.4246,       626,
   56.4448,       693,
   56.4651,       673,
   56.4853,       637,
   56.5055,       665,
   56.5257,       699,
   56.5459,       750,
   56.5661,       760,
   56.5864,       811,
   56.6066,       766,
   56.6268,       867,
    56.647,       870,
   56.6672,       906,
   56.6875,       949,
   56.7077,       963,
   56.7279,       998,
   56.7481,      1032,
   56.7683,      1059,
   56.7886,      1148,
   56.8088,      1117,
    56.829,      1095,
   56.8492,      1115,
   56.8694,      1068,
   56.8897,      1065,
   56.9099,      1060,
   56.9301,      1019,
   56.9503,      1000,
   56.9705,      1044,
   56.9907,       889,
    57.011,       933,
   57.0312,       829,
   57.0514,       830,
   57.0716,       782,
   57.0918,       808,
   57.1121,       778,
   57.1323,       696,
   57.1525,       665,
   57.1727,       642,
   57.1929,       672,
   57.2132,       616,
   57.2334,       600,
   57.2536,       559,
   57.2738,       565,
    57.294,       572,
   57.3142,       552,
   57.3345,       553,
   57.3547,       543,
   57.3749,       544,
   57.3951,       526,
   57.4153,       564,
   57.4356,       536,
   57.4558,       532,
    57.476,       564,
   57.4962,       525,
   57.5164,       534,
   57.5367,       531,
   57.5569,       549,
   57.5771,       583,
   57.5973,       587,
   57.6175,       601,
   57.6377,       628,
    57.658,       581,
   57.6782,       629,
   57.6984,       656,
   57.7186,       661,
   57.7388,       690,
   57.7591,       681,
   57.7793,       636,
   57.7995,       690,
   57.8197,       694,
   57.8399,       727,
   57.8602,       730,
   57.8804,       719,
   57.9006,       751,
   57.9208,       720,
    57.941,       738,
   57.9612,       741,
   57.9815,       699,
   58.0017,       762,
   58.0219,       709,
   58.0421,       774,
   58.0623,       696,
   58.0826,       693,
   58.1028,       689,
    58.123,       622,
   58.1432,       663,
   58.1634,       603,
   58.1837,       627,
   58.2039,       615,
   58.2241,       606,
   58.2443,       547,
   58.2645,       617,
   58.2847,       567,
    58.305,       572,
   58.3252,       528,
   58.3454,       501,
   58.3656,       550,
   58.3858,       537,
   58.4061,       539,
   58.4263,       467,
   58.4465,       491,
   58.4667,       489,
   58.4869,       502,
   58.5072,       512,
   58.5274,       486,
   58.5476,       442,
   58.5678,       472,
    58.588,       466,
   58.6082,       490,
   58.6285,       484,
   58.6487,       421,
   58.6689,       467,
   58.6891,       473,
   58.7093,       435,
   58.7296,       505,
   58.7498,       482,
     58.77,       512,
   58.7902,       463,
   58.8104,       451,
   58.8307,       493,
   58.8509,       481,
   58.8711,       463,
   58.8913,       492,
   58.9115,       479,
   58.9317,       546,
    58.952,       582,
   58.9722,       561,
   58.9924,       585,
   59.0126,       654,
   59.0328,       711,
   59.0531,       660,
   59.0733,       696,
   59.0935,       717,
   59.1137,       716,
   59.1339,       681,
   59.1542,       697,
   59.1744,       601,
   59.1946,       601,
   59.2148,       596,
    59.235,       556,
   59.2552,       528,
   59.2755,       484,
   59.2957,       509,
   59.3159,       468,
   59.3361,       397,
   59.3563,       432,
   59.3766,       430,
   59.3968,       388,
    59.417,       379,
   59.4372,       405,
   59.4574,       380,
   59.4777,       374,
   59.4979,       376,
   59.5181,       395,
   59.5383,       337,
   59.5585,       325,
   59.5787,       332,
    59.599,       348,
   59.6192,       344,
   59.6394,       342,
   59.6596,       365,
   59.6798,       348,
   59.7001,       325,
   59.7203,       344,
   59.7405,       352,
   59.7607,       349,
   59.7809,       342,
   59.8012,       317,
   59.8214,       320,
   59.8416,       322,
   59.8618,       318,
    59.882,       342,
   59.9022,       294,
   59.9225,       343,
   59.9427,       328,
   59.9629,       308,
   59.9831,       306,
   60.0033,       322,
   60.0236,       331,
   60.0438,       332,
    60.064,       332,
   60.0842,       339,
   60.1044,       337,
   60.1247,       279,
   60.1449,       316,
   60.1651,       336,
   60.1853,       334,
   60.2055,       307,
   60.2257,       282,
    60.246,       308,
   60.2662,       327,
   60.2864,       339,
   60.3066,       335,
   60.3268,       315,
   60.3471,       349,
   60.3673,       310,
   60.3875,       287,
   60.4077,       317,
   60.4279,       301,
   60.4482,       313,
   60.4684,       313,
   60.4886,       306,
   60.5088,       280,
    60.529,       317,
   60.5492,       286,
   60.5695,       302,
   60.5897,       325,
   60.6099,       262,
   60.6301,       294,
   60.6503,       305,
   60.6706,       330,
   60.6908,       285,
    60.711,       321,
   60.7312,       311,
   60.7514,       307,
   60.7717,       351,
   60.7919,       300,
   60.8121,       314,
   60.8323,       307,
   60.8525,       319,
   60.8727,       300,
    60.893,       320,
   60.9132,       323,
   60.9334,       320,
   60.9536,       337,
   60.9738,       358,
   60.9941,       329,
   61.0143,       313,
   61.0345,       308,
   61.0547,       342,
   61.0749,       333,
   61.0952,       324,
   61.1154,       339,
   61.1356,       355,
   61.1558,       355,
    61.176,       337,
   61.1962,       361,
   61.2165,       376,
   61.2367,       335,
   61.2569,       364,
   61.2771,       335,
   61.2973,       352,
   61.3176,       348,
   61.3378,       328,
    61.358,       374,
   61.3782,       395,
   61.3984,       342,
   61.4187,       350,
   61.4389,       356,
   61.4591,       366,
   61.4793,       351,
   61.4995,       356,
   61.5197,       377,
     61.54,       392,
   61.5602,       407,
   61.5804,       426,
   61.6006,       447,
   61.6208,       497,
   61.6411,       538,
   61.6613,       582,
   61.6815,       606,
   61.7017,       661,
   61.7219,       705,
   61.7422,       700,
   61.7624,       742,
   61.7826,       693,
   61.8028,       686,
    61.823,       655,
   61.8432,       660,
   61.8635,       605,
   61.8837,       605,
   61.9039,       571,
   61.9241,       571,
   61.9443,       531,
   61.9646,       486,
   61.9848,       488,
    62.005,       459,
   62.0252,       441,
   62.0454,       430,
   62.0657,       408,
   62.0859,       458,
   62.1061,       415,
   62.1263,       392,
   62.1465,       411,
   62.1667,       399,
    62.187,       423,
   62.2072,       386,
   62.2274,       425,
   62.2476,       435,
   62.2678,       451,
   62.2881,       462,
   62.3083,       490,
   62.3285,       501,
   62.3487,       520,
   62.3689,       509,
   62.3892,       552,
   62.4094,       519,
   62.4296,       521,
   62.4498,       567,
     62.47,       573,
   62.4902,       509,
   62.5105,       494,
   62.5307,       496,
   62.5509,       443,
   62.5711,       446,
   62.5913,       492,
   62.6116,       455,
   62.6318,       401,
    62.652,       393,
   62.6722,       378,
   62.6924,       319,
   62.7127,       343,
   62.7329,       352,
   62.7531,       335,
   62.7733,       337,
   62.7935,       335,
   62.8137,       330,
    62.834,       345,
   62.8542,       325,
   62.8744,       343,
   62.8946,       321,
   62.9148,       330,
   62.9351,       268,
   62.9553,       303,
   62.9755,       284,
   62.9957,       297,
   63.0159,       273,
   63.0362,       326,
   63.0564,       299,
   63.0766,       319,
   63.0968,       324,
    63.117,       332,
   63.1372,       322,
   63.1575,       300,
   63.1777,       260,
   63.1979,       304,
   63.2181,       266,
   63.2383,       309,
   63.2586,       332,
   63.2788,       313,
    63.299,       277,
   63.3192,       316,
   63.3394,       300,
   63.3597,       309,
   63.3799,       322,
   63.4001,       325,
   63.4203,       312,
   63.4405,       353,
   63.4607,       339,
    63.481,       319,
   63.5012,       330,
   63.5214,       352,
   63.5416,       383,
   63.5618,       383,
   63.5821,       374,
   63.6023,       389,
   63.6225,       352,
   63.6427,       385,
   63.6629,       332,
   63.6832,       357,
   63.7034,       354,
   63.7236,       349,
   63.7438,       386,
    63.764,       336,
   63.7842,       309,
   63.8045,       300,
   63.8247,       317,
   63.8449,       318,
   63.8651,       322,
   63.8853,       288,
   63.9056,       271,
   63.9258,       297,
    63.946,       293,
   63.9662,       289,
   63.9864,       272,
   64.0067,       273,
   64.0269,       263,
   64.0471,       307,
   64.0673,       278,
   64.0875,       275,
   64.1077,       282,
    64.128,       271,
   64.1482,       286,
   64.1684,       294,
   64.1886,       292,
   64.2088,       267,
   64.2291,       299,
   64.2493,       280,
   64.2695,       263,
   64.2897,       274,
   64.3099,       269,
   64.3302,       292,
   64.3504,       280,
   64.3706,       294,
   64.3908,       247,
    64.411,       276,
   64.4312,       299,
   64.4515,       254,
   64.4717,       284,
   64.4919,       299,
   64.5121,       294,
   64.5323,       282,
   64.5526,       276,
   64.5728,       270,
    64.593,       278,
   64.6132,       289,
   64.6334,       284,
   64.6537,       266,
   64.6739,       282,
   64.6941,       254,
   64.7143,       291,
   64.7345,       297,
   64.7547,       258,
    64.775,       265,
   64.7952,       258,
   64.8154,       292,
   64.8356,       257,
   64.8558,       251,
   64.8761,       282,
   64.8963,       280,
   64.9165,       279,
   64.9367,       293,
   64.9569,       261,
   64.9772,       305,
   64.9974,       266,
   65.0176,       258,
   65.0378,       282,
    65.058,       255,
   65.0782,       271,
   65.0985,       266,
   65.1187,       266,
   65.1389,       255,
   65.1591,       257,
   65.1793,       270,
   65.1996,       258,
   65.2198,       258,
     65.24,       273,
   65.2602,       264,
   65.2804,       284,
   65.3007,       264,
   65.3209,       248,
   65.3411,       254,
   65.3613,       274,
   65.3815,       261,
   65.4017,       301,
    65.422,       257,
   65.4422,       297,
   65.4624,       255,
   65.4826,       286,
   65.5028,       289,
   65.5231,       256,
   65.5433,       259,
   65.5635,       254,
   65.5837,       273,
   65.6039,       271,
   65.6242,       244,
   65.6444,       261,
   65.6646,       244,
   65.6848,       280,
    65.705,       275,
   65.7252,       266,
   65.7455,       271,
   65.7657,       260,
   65.7859,       249,
   65.8061,       294,
   65.8263,       241,
   65.8466,       280,
   65.8668,       247,
    65.887,       246,
   65.9072,       294,
   65.9274,       263,
   65.9477,       272,
   65.9679,       272,
   65.9881,       295,
   66.0083,       268,
   66.0285,       288,
   66.0487,       229,
    66.069,       281,
   66.0892,       261,
   66.1094,       258,
   66.1296,       288,
   66.1498,       261,
   66.1701,       303,
   66.1903,       290,
   66.2105,       310,
   66.2307,       303,
   66.2509,       304,
   66.2712,       298,
   66.2914,       336,
   66.3116,       325,
   66.3318,       310,
    66.352,       310,
   66.3722,       307,
   66.3925,       311,
   66.4127,       261,
   66.4329,       321,
   66.4531,       322,
   66.4733,       343,
   66.4936,       333,
   66.5138,       353,
    66.534,       386,
   66.5542,       374,
   66.5744,       370,
   66.5947,       422,
   66.6149,       470,
   66.6351,       517,
   66.6553,       533,
   66.6755,       575,
   66.6957,       626,
    66.716,       605,
   66.7362,       569,
   66.7564,       587,
   66.7766,       580,
   66.7968,       561,
   66.8171,       549,
   66.8373,       565,
   66.8575,       519,
   66.8777,       474,
   66.8979,       483,
   66.9182,       477,
   66.9384,       439,
   66.9586,       437,
   66.9788,       379,
    66.999,       394,
   67.0192,       366,
   67.0395,       384,
   67.0597,       386,
   67.0799,       313,
   67.1001,       341,
   67.1203,       301,
   67.1406,       339,
   67.1608,       305,
    67.181,       313,
   67.2012,       307,
   67.2214,       303,
   67.2417,       308,
   67.2619,       338,
   67.2821,       291,
   67.3023,       294,
   67.3225,       290,
   67.3427,       287,
    67.363,       287,
   67.3832,       273,
   67.4034,       284,
   67.4236,       287,
   67.4438,       290,
   67.4641,       298,
   67.4843,       251,
   67.5045,       296,
   67.5247,       272,
   67.5449,       281,
   67.5652,       303,
   67.5854,       306,
   67.6056,       303,
   67.6258,       310,
    67.646,       304,
   67.6663,       298,
   67.6865,       290,
   67.7067,       288,
   67.7269,       303,
   67.7471,       311,
   67.7673,       308,
   67.7876,       320,
   67.8078,       290,
    67.828,       294,
   67.8482,       309,
   67.8684,       267,
   67.8887,       311,
   67.9089,       320,
   67.9291,       299,
   67.9493,       317,
   67.9695,       299,
   67.9898,       303,
     68.01,       313,
   68.0302,       280,
   68.0504,       302,
   68.0706,       293,
   68.0908,       309,
   68.1111,       310,
   68.1313,       296,
   68.1515,       281,
   68.1717,       303,
   68.1919,       297,
   68.2122,       311,
   68.2324,       297,
   68.2526,       274,
   68.2728,       265,
    68.293,       286,
   68.3133,       329,
   68.3335,       273,
   68.3537,       287,
   68.3739,       288,
   68.3941,       301,
   68.4143,       305,
   68.4346,       314,
   68.4548,       335,
    68.475,       327,
   68.4952,       311,
   68.5154,       310,
   68.5357,       314,
   68.5559,       308,
   68.5761,       353,
   68.5963,       368,
   68.6165,       381,
   68.6368,       357,
    68.657,       377,
   68.6772,       359,
   68.6974,       359,
   68.7176,       331,
   68.7378,       385,
   68.7581,       419,
   68.7783,       377,
   68.7985,       372,
   68.8187,       371,
   68.8389,       399,
   68.8592,       373,
   68.8794,       372,
   68.8996,       378,
   68.9198,       388,
     68.94,       370,
   68.9603,       375,
   68.9805,       398,
   69.0007,       412,
   69.0209,       375,
   69.0411,       403,
   69.0613,       370,
   69.0816,       372,
   69.1018,       349,
    69.122,       345,
   69.1422,       383,
   69.1624,       342,
   69.1827,       328,
   69.2029,       356,
   69.2231,       357,
   69.2433,       339,
   69.2635,       318,
   69.2838,       325,
    69.304,       330,
   69.3242,       336,
   69.3444,       319,
   69.3646,       316,
   69.3848,       304,
   69.4051,       332,
   69.4253,       313,
   69.4455,       296,
   69.4657,       308,
   69.4859,       340,
   69.5062,       301,
   69.5264,       319,
   69.5466,       276,
   69.5668,       297,
    69.587,       297,
   69.6073,       283,
   69.6275,       308,
   69.6477,       288,
   69.6679,       279,
   69.6881,       265,
   69.7083,       282,
   69.7286,       297,
   69.7488,       308,
    69.769,       295,
   69.7892,       285,
   69.8094,       302,
   69.8297,       278,
   69.8499,       294,
   69.8701,       312,
   69.8903,       300,
   69.9105,       329,
   69.9308,       296,
    69.951,       280,
   69.9712,       344,
   69.9914,       287,
   70.0116,       323,
   70.0318,       312,
   70.0521,       331,
