;RAW4.00
[RawHeader]
Date=10/22/2019
EstimatedTotalTime=1635.47
FurtherDQLReading=0
HardwareIndicator=65519
MeasuredTotalTime=1635.47
MeasurementFlag=1
NumberOfMeasuredRanges=1
NumberOfRanges=1
Time=18:23:39

[VarInfo]
Type=USER
Flags=0
Value=Bruker Service

[VarInfo]
Type=SAMPLEID
Flags=0
Value=Commander Sample ID

[VarInfo]
Type=COMMENT
Flags=0
Value=

[VarInfo]
Type=UTF
Flags=0
Value=

[VarInfo]
Type=CREATOR
Flags=0
Value=BrmlToV4Converter

[VarInfo]
Type=CREATOR_VERSION
Flags=0
Value=7.3.0.0

[HardwareConfiguration]
AbsorptionFactor=9999
ActivateAbsorber=0
Alpha1=1.78897
Alpha2=1.79285
AlphaAverage=1.79026
AlphaRatio=0.5
Analyzer=0
Anode=Co
AntiScatteringSlit=9999
BeamOpticsFlags=0
Beta=1.62079
BetaRelativeIntensity=0
DeactivateAbsorber=0
DetectorSlit=9999
DivergenceSlit=1
GoniometerControl=0
GoniometerDiameter=282
GoniometerModel=256
GoniometerStage=7
Monochromator=0
NearSampleSlit=9999
PrimarySollerSlit=9999
SampleChanger=0
SecondSollerSlit=9999
SynchronousAxis=0
ThinFilmAttachment=9999
WaveUnit=A

[RangeHeader]
ActuallyUsedLambda=1.79026
AdditionalDetectorMask=257
DataRecordLength=4
DelayTime=0
DisplayPlaneNumber=0
EstimatedScanTime=1635
ExtraParametersMask=0
GeneratorCurrent=10
GeneratorVoltage=30
Increment=0.0202188
Increment3=0
NumberOfCompletedData=2971
NumberOfCounts=1
NumberOfDetectors=0
NumberOfDrives=2
NumberOfEncoderDrives=0
NumberOfMeasuredData=2971
NumberOfVaryingParameters=0
RangeStartTime=0
RotationSpeed=1
ScanMode=1
ScanType=Locked Coupled
SimulatedMeasConditions=0
SlitChangerIn=0
SmootingWidth=0
Start=10.0023
Steps=2971
SynchronousRotation=0
Time=96

[VarInfo]
Type=PSD_DISCRIM
Flags=0
Value=0.11;0.25

[PSD]
ActualTwoTheta=9999
FirstUsedChannel=0
FixedPSD=0
PSDOpening=5.823
PSDType=5

[Drive]
DriveFlags=1
DriveName=2Theta
DriveNumber=2
DriveOffset=0
OffsetIndex=0
OscillationAmplitude=0
OscillationSpeed=0
StartPosition=10.0023

[Drive]
DriveFlags=1
DriveName=Theta
DriveNumber=1
DriveOffset=0
OffsetIndex=0
OscillationAmplitude=0
OscillationSpeed=0
StartPosition=5.00117

[Data]
     Angle,       PSD,
   10.0023,       931,
   10.0226,       925,
   10.0428,       885,
    10.063,       962,
   10.0832,       884,
   10.1034,       858,
   10.1237,       947,
   10.1439,       928,
   10.1641,       891,
   10.1843,       901,
   10.2045,       902,
   10.2247,       889,
    10.245,       867,
   10.2652,       825,
   10.2854,       917,
   10.3056,       819,
   10.3258,       872,
   10.3461,       926,
   10.3663,       882,
   10.3865,       927,
   10.4067,       872,
   10.4269,       899,
   10.4472,       823,
   10.4674,       903,
   10.4876,       850,
   10.5078,       829,
    10.528,       857,
   10.5482,       835,
   10.5685,       887,
   10.5887,       815,
   10.6089,       840,
   10.6291,       820,
   10.6493,       877,
   10.6696,       864,
   10.6898,       859,
     10.71,       866,
   10.7302,       813,
   10.7504,       855,
   10.7707,       873,
   10.7909,       831,
   10.8111,       814,
   10.8313,       771,
   10.8515,       848,
   10.8717,       818,
    10.892,       838,
   10.9122,       823,
   10.9324,       850,
   10.9526,       831,
   10.9728,       767,
   10.9931,       865,
   11.0133,       784,
   11.0335,       810,
   11.0537,       811,
   11.0739,       815,
   11.0942,       778,
   11.1144,       868,
   11.1346,       779,
   11.1548,       811,
    11.175,       837,
   11.1952,       810,
   11.2155,       853,
   11.2357,       804,
   11.2559,       766,
   11.2761,       825,
   11.2963,       816,
   11.3166,       794,
   11.3368,       747,
    11.357,       825,
   11.3772,       840,
   11.3974,       787,
   11.4177,       832,
   11.4379,       790,
   11.4581,       803,
   11.4783,       838,
   11.4985,       829,
   11.5187,       756,
    11.539,       796,
   11.5592,       743,
   11.5794,       774,
   11.5996,       802,
   11.6198,       812,
   11.6401,       779,
   11.6603,       794,
   11.6805,       800,
   11.7007,       737,
   11.7209,       818,
   11.7412,       832,
   11.7614,       786,
   11.7816,       754,
   11.8018,       782,
    11.822,       760,
   11.8422,       743,
   11.8625,       822,
   11.8827,       800,
   11.9029,       795,
   11.9231,       793,
   11.9433,       776,
   11.9636,       780,
   11.9838,       804,
    12.004,       796,
   12.0242,       764,
   12.0444,       805,
   12.0647,       745,
   12.0849,       835,
   12.1051,       804,
   12.1253,       795,
   12.1455,       787,
   12.1657,       788,
    12.186,       758,
   12.2062,       761,
   12.2264,       799,
   12.2466,       722,
   12.2668,       751,
   12.2871,       732,
   12.3073,       735,
   12.3275,       801,
   12.3477,       768,
   12.3679,       765,
   12.3882,       760,
   12.4084,       733,
   12.4286,       738,
   12.4488,       742,
    12.469,       731,
   12.4892,       790,
   12.5095,       799,
   12.5297,       811,
   12.5499,       710,
   12.5701,       750,
   12.5903,       749,
   12.6106,       711,
   12.6308,       700,
    12.651,       740,
   12.6712,       730,
   12.6914,       727,
   12.7117,       707,
   12.7319,       734,
   12.7521,       798,
   12.7723,       766,
   12.7925,       734,
   12.8127,       791,
    12.833,       724,
   12.8532,       719,
   12.8734,       753,
   12.8936,       704,
   12.9138,       736,
   12.9341,       741,
   12.9543,       754,
   12.9745,       735,
   12.9947,       744,
   13.0149,       749,
   13.0352,       749,
   13.0554,       713,
   13.0756,       735,
   13.0958,       753,
    13.116,       706,
   13.1362,       766,
   13.1565,       719,
   13.1767,       777,
   13.1969,       705,
   13.2171,       713,
   13.2373,       742,
   13.2576,       712,
   13.2778,       743,
    13.298,       688,
   13.3182,       751,
   13.3384,       777,
   13.3587,       775,
   13.3789,       828,
   13.3991,       856,
   13.4193,       856,
   13.4395,       847,
   13.4597,       994,
     13.48,      1024,
   13.5002,       981,
   13.5204,       961,
   13.5406,       949,
   13.5608,       894,
   13.5811,       866,
   13.6013,       803,
   13.6215,       729,
   13.6417,       785,
   13.6619,       742,
   13.6822,       755,
   13.7024,       728,
   13.7226,       697,
   13.7428,       780,
    13.763,       714,
   13.7832,       688,
   13.8035,       730,
   13.8237,       730,
   13.8439,       702,
   13.8641,       768,
   13.8843,       750,
   13.9046,       726,
   13.9248,       766,
    13.945,       732,
   13.9652,       764,
   13.9854,       690,
   14.0057,       714,
   14.0259,       736,
   14.0461,       736,
   14.0663,       686,
   14.0865,       721,
   14.1068,       722,
    14.127,       722,
   14.1472,       705,
   14.1674,       731,
   14.1876,       737,
   14.2078,       708,
   14.2281,       729,
   14.2483,       687,
   14.2685,       673,
   14.2887,       726,
   14.3089,       723,
   14.3292,       713,
   14.3494,       694,
   14.3696,       700,
   14.3898,       721,
     14.41,       729,
   14.4303,       694,
   14.4505,       708,
   14.4707,       718,
   14.4909,       662,
   14.5111,       659,
   14.5313,       730,
   14.5516,       675,
   14.5718,       661,
    14.592,       723,
   14.6122,       661,
   14.6324,       661,
   14.6527,       636,
   14.6729,       729,
   14.6931,       743,
   14.7133,       690,
   14.7335,       666,
   14.7538,       688,
    14.774,       704,
   14.7942,       635,
   14.8144,       689,
   14.8346,       684,
   14.8548,       674,
   14.8751,       589,
   14.8953,       692,
   14.9155,       693,
   14.9357,       693,
   14.9559,       658,
   14.9762,       692,
   14.9964,       624,
   15.0166,       662,
   15.0368,       675,
    15.057,       696,
   15.0773,       710,
   15.0975,       699,
   15.1177,       655,
   15.1379,       683,
   15.1581,       670,
   15.1783,       683,
   15.1986,       660,
   15.2188,       657,
    15.239,       658,
   15.2592,       693,
   15.2794,       663,
   15.2997,       716,
   15.3199,       637,
   15.3401,       676,
   15.3603,       671,
   15.3805,       657,
   15.4008,       659,
    15.421,       693,
   15.4412,       672,
   15.4614,       691,
   15.4816,       665,
   15.5018,       640,
   15.5221,       696,
   15.5423,       663,
   15.5625,       678,
   15.5827,       654,
   15.6029,       669,
   15.6232,       633,
   15.6434,       657,
   15.6636,       640,
   15.6838,       643,
    15.704,       605,
   15.7243,       677,
   15.7445,       690,
   15.7647,       653,
   15.7849,       659,
   15.8051,       620,
   15.8253,       644,
   15.8456,       654,
   15.8658,       599,
    15.886,       589,
   15.9062,       596,
   15.9264,       642,
   15.9467,       658,
   15.9669,       641,
   15.9871,       633,
   16.0073,       628,
   16.0275,       621,
   16.0478,       621,
    16.068,       669,
   16.0882,       651,
   16.1084,       642,
   16.1286,       654,
   16.1488,       680,
   16.1691,       644,
   16.1893,       599,
   16.2095,       647,
   16.2297,       615,
   16.2499,       592,
   16.2702,       631,
   16.2904,       608,
   16.3106,       605,
   16.3308,       619,
    16.351,       632,
   16.3713,       684,
   16.3915,       617,
   16.4117,       661,
   16.4319,       652,
   16.4521,       615,
   16.4723,       608,
   16.4926,       635,
   16.5128,       644,
    16.533,       656,
   16.5532,       720,
   16.5734,       698,
   16.5937,       777,
   16.6139,       795,
   16.6341,       782,
   16.6543,       808,
   16.6745,       804,
   16.6948,       835,
    16.715,       750,
   16.7352,       669,
   16.7554,       661,
   16.7756,       636,
   16.7958,       656,
   16.8161,       593,
   16.8363,       590,
   16.8565,       615,
   16.8767,       621,
   16.8969,       638,
   16.9172,       591,
   16.9374,       599,
   16.9576,       639,
   16.9778,       628,
    16.998,       627,
   17.0183,       670,
   17.0385,       608,
   17.0587,       644,
   17.0789,       655,
   17.0991,       655,
   17.1193,       625,
   17.1396,       651,
   17.1598,       630,
     17.18,       617,
   17.2002,       611,
   17.2204,       586,
   17.2407,       556,
   17.2609,       627,
   17.2811,       621,
   17.3013,       580,
   17.3215,       658,
   17.3418,       584,
    17.362,       592,
   17.3822,       588,
   17.4024,       626,
   17.4226,       597,
   17.4428,       576,
   17.4631,       643,
   17.4833,       586,
   17.5035,       618,
   17.5237,       601,
   17.5439,       565,
   17.5642,       576,
   17.5844,       605,
   17.6046,       586,
   17.6248,       621,
    17.645,       564,
   17.6653,       589,
   17.6855,       559,
   17.7057,       590,
   17.7259,       552,
   17.7461,       617,
   17.7663,       582,
   17.7866,       611,
   17.8068,       562,
    17.827,       598,
   17.8472,       566,
   17.8674,       560,
   17.8877,       602,
   17.9079,       564,
   17.9281,       574,
   17.9483,       580,
   17.9685,       582,
   17.9888,       545,
    18.009,       543,
   18.0292,       539,
   18.0494,       517,
   18.0696,       552,
   18.0898,       551,
   18.1101,       596,
   18.1303,       590,
   18.1505,       568,
   18.1707,       564,
   18.1909,       575,
   18.2112,       591,
   18.2314,       582,
   18.2516,       580,
   18.2718,       529,
    18.292,       538,
   18.3123,       534,
   18.3325,       606,
   18.3527,       607,
   18.3729,       560,
   18.3931,       549,
   18.4133,       567,
   18.4336,       519,
   18.4538,       538,
    18.474,       579,
   18.4942,       549,
   18.5144,       534,
   18.5347,       602,
   18.5549,       556,
   18.5751,       578,
   18.5953,       576,
   18.6155,       569,
   18.6358,       594,
    18.656,       539,
   18.6762,       518,
   18.6964,       547,
   18.7166,       597,
   18.7368,       514,
   18.7571,       595,
   18.7773,       590,
   18.7975,       591,
   18.8177,       563,
   18.8379,       528,
   18.8582,       545,
   18.8784,       565,
   18.8986,       555,
   18.9188,       565,
    18.939,       578,
   18.9593,       560,
   18.9795,       586,
   18.9997,       543,
   19.0199,       588,
   19.0401,       532,
   19.0603,       552,
   19.0806,       532,
   19.1008,       555,
    19.121,       548,
   19.1412,       575,
   19.1614,       599,
   19.1817,       541,
   19.2019,       606,
   19.2221,       534,
   19.2423,       573,
   19.2625,       609,
   19.2828,       598,
    19.303,       597,
   19.3232,       531,
   19.3434,       578,
   19.3636,       569,
   19.3838,       560,
   19.4041,       550,
   19.4243,       543,
   19.4445,       544,
   19.4647,       548,
   19.4849,       583,
   19.5052,       535,
   19.5254,       557,
   19.5456,       536,
   19.5658,       609,
    19.586,       603,
   19.6063,       531,
   19.6265,       530,
   19.6467,       567,
   19.6669,       530,
   19.6871,       521,
   19.7073,       556,
   19.7276,       504,
   19.7478,       528,
    19.768,       567,
   19.7882,       517,
   19.8084,       554,
   19.8287,       538,
   19.8489,       554,
   19.8691,       586,
   19.8893,       600,
   19.9095,       592,
   19.9298,       533,
     19.95,       537,
   19.9702,       521,
   19.9904,       540,
   20.0106,       553,
   20.0308,       491,
   20.0511,       578,
   20.0713,       525,
   20.0915,       528,
   20.1117,       551,
   20.1319,       537,
   20.1522,       503,
   20.1724,       548,
   20.1926,       573,
   20.2128,       549,
    20.233,       552,
   20.2533,       535,
   20.2735,       542,
   20.2937,       520,
   20.3139,       547,
   20.3341,       524,
   20.3543,       522,
   20.3746,       558,
   20.3948,       520,
    20.415,       574,
   20.4352,       543,
   20.4554,       522,
   20.4757,       527,
   20.4959,       545,
   20.5161,       497,
   20.5363,       565,
   20.5565,       547,
   20.5768,       552,
    20.597,       559,
   20.6172,       512,
   20.6374,       551,
   20.6576,       566,
   20.6778,       520,
   20.6981,       525,
   20.7183,       535,
   20.7385,       556,
   20.7587,       534,
   20.7789,       546,
   20.7992,       581,
   20.8194,       510,
   20.8396,       555,
   20.8598,       539,
     20.88,       523,
   20.9003,       544,
   20.9205,       494,
   20.9407,       539,
   20.9609,       525,
   20.9811,       546,
   21.0013,       526,
   21.0216,       528,
   21.0418,       531,
    21.062,       502,
   21.0822,       528,
   21.1024,       549,
   21.1227,       511,
   21.1429,       580,
   21.1631,       503,
   21.1833,       522,
   21.2035,       537,
   21.2238,       526,
    21.244,       567,
   21.2642,       513,
   21.2844,       506,
   21.3046,       505,
   21.3248,       539,
   21.3451,       513,
   21.3653,       512,
   21.3855,       525,
   21.4057,       556,
   21.4259,       543,
   21.4462,       560,
   21.4664,       522,
   21.4866,       531,
   21.5068,       548,
    21.527,       539,
   21.5473,       568,
   21.5675,       508,
   21.5877,       495,
   21.6079,       479,
   21.6281,       531,
   21.6483,       538,
   21.6686,       568,
   21.6888,       505,
    21.709,       583,
   21.7292,       511,
   21.7494,       564,
   21.7697,       538,
   21.7899,       500,
   21.8101,       519,
   21.8303,       526,
   21.8505,       541,
   21.8708,       505,
    21.891,       546,
   21.9112,       522,
   21.9314,       529,
   21.9516,       531,
   21.9718,       518,
   21.9921,       559,
   22.0123,       525,
   22.0325,       546,
   22.0527,       510,
   22.0729,       542,
   22.0932,       512,
   22.1134,       492,
   22.1336,       525,
   22.1538,       548,
    22.174,       556,
   22.1943,       523,
   22.2145,       475,
   22.2347,       516,
   22.2549,       556,
   22.2751,       503,
   22.2953,       506,
   22.3156,       506,
   22.3358,       493,
    22.356,       507,
   22.3762,       526,
   22.3964,       533,
   22.4167,       533,
   22.4369,       540,
   22.4571,       519,
   22.4773,       497,
   22.4975,       536,
   22.5178,       537,
    22.538,       540,
   22.5582,       564,
   22.5784,       515,
   22.5986,       516,
   22.6188,       536,
   22.6391,       515,
   22.6593,       563,
   22.6795,       553,
   22.6997,       527,
   22.7199,       580,
   22.7402,       575,
   22.7604,       562,
   22.7806,       545,
   22.8008,       544,
    22.821,       552,
   22.8413,       586,
   22.8615,       581,
   22.8817,       569,
   22.9019,       579,
   22.9221,       601,
   22.9423,       603,
   22.9626,       606,
   22.9828,       591,
    23.003,       575,
   23.0232,       557,
   23.0434,       586,
   23.0637,       593,
   23.0839,       543,
   23.1041,       619,
   23.1243,       603,
   23.1445,       626,
   23.1648,       599,
    23.185,       563,
   23.2052,       613,
   23.2254,       565,
   23.2456,       585,
   23.2658,       599,
   23.2861,       617,
   23.3063,       615,
   23.3265,       592,
   23.3467,       618,
   23.3669,       671,
   23.3872,       581,
   23.4074,       605,
   23.4276,       682,
   23.4478,       607,
    23.468,       594,
   23.4883,       605,
   23.5085,       588,
   23.5287,       563,
   23.5489,       566,
   23.5691,       558,
   23.5893,       530,
   23.6096,       607,
   23.6298,       627,
     23.65,       554,
   23.6702,       538,
   23.6904,       534,
   23.7107,       545,
   23.7309,       558,
   23.7511,       544,
   23.7713,       589,
   23.7915,       508,
   23.8118,       596,
    23.832,       532,
   23.8522,       550,
   23.8724,       562,
   23.8926,       527,
   23.9128,       528,
   23.9331,       539,
   23.9533,       584,
   23.9735,       567,
   23.9937,       625,
   24.0139,       614,
   24.0342,       655,
   24.0544,       673,
   24.0746,       751,
   24.0948,       780,
    24.115,       816,
   24.1353,       842,
   24.1555,       815,
   24.1757,       758,
   24.1959,       666,
   24.2161,       680,
   24.2363,       633,
   24.2566,       627,
   24.2768,       564,
    24.297,       571,
   24.3172,       601,
   24.3374,       594,
   24.3577,       590,
   24.3779,       540,
   24.3981,       509,
   24.4183,       543,
   24.4385,       555,
   24.4588,       554,
    24.479,       567,
   24.4992,       607,
   24.5194,       552,
   24.5396,       612,
   24.5599,       556,
   24.5801,       560,
   24.6003,       549,
   24.6205,       608,
   24.6407,       506,
   24.6609,       500,
   24.6812,       492,
   24.7014,       508,
   24.7216,       556,
   24.7418,       503,
    24.762,       498,
   24.7823,       511,
   24.8025,       541,
   24.8227,       536,
   24.8429,       506,
   24.8631,       481,
   24.8834,       532,
   24.9036,       542,
   24.9238,       516,
    24.944,       509,
   24.9642,       515,
   24.9844,       559,
   25.0047,       486,
   25.0249,       488,
   25.0451,       521,
   25.0653,       498,
   25.0855,       493,
   25.1058,       497,
    25.126,       536,
   25.1462,       526,
   25.1664,       489,
   25.1866,       518,
   25.2069,       479,
   25.2271,       468,
   25.2473,       521,
   25.2675,       510,
   25.2877,       498,
   25.3079,       479,
   25.3282,       519,
   25.3484,       509,
   25.3686,       489,
   25.3888,       519,
    25.409,       522,
   25.4293,       479,
   25.4495,       521,
   25.4697,       559,
   25.4899,       479,
   25.5101,       542,
   25.5304,       517,
   25.5506,       527,
   25.5708,       516,
    25.591,       480,
   25.6112,       502,
   25.6314,       500,
   25.6517,       506,
   25.6719,       491,
   25.6921,       492,
   25.7123,       456,
   25.7325,       520,
   25.7528,       459,
    25.773,       488,
   25.7932,       493,
   25.8134,       466,
   25.8336,       476,
   25.8539,       503,
   25.8741,       529,
   25.8943,       490,
   25.9145,       509,
   25.9347,       520,
   25.9549,       513,
   25.9752,       507,
   25.9954,       484,
   26.0156,       526,
   26.0358,       518,
    26.056,       534,
   26.0763,       483,
   26.0965,       471,
   26.1167,       494,
   26.1369,       465,
   26.1571,       477,
   26.1774,       487,
   26.1976,       497,
   26.2178,       506,
    26.238,       492,
   26.2582,       484,
   26.2784,       505,
   26.2987,       496,
   26.3189,       451,
   26.3391,       471,
   26.3593,       479,
   26.3795,       470,
   26.3998,       537,
     26.42,       481,
   26.4402,       488,
   26.4604,       519,
   26.4806,       521,
   26.5009,       497,
   26.5211,       519,
   26.5413,       501,
   26.5615,       518,
   26.5817,       516,
   26.6019,       462,
   26.6222,       518,
   26.6424,       530,
   26.6626,       453,
   26.6828,       501,
    26.703,       466,
   26.7233,       499,
   26.7435,       472,
   26.7637,       551,
   26.7839,       519,
   26.8041,       508,
   26.8244,       559,
   26.8446,       560,
   26.8648,       518,
    26.885,       602,
   26.9052,       539,
   26.9254,       583,
   26.9457,       549,
   26.9659,       594,
   26.9861,       603,
   27.0063,       617,
   27.0265,       640,
   27.0468,       647,
    27.067,       696,
   27.0872,       784,
   27.1074,       884,
   27.1276,       865,
   27.1479,       948,
   27.1681,      1028,
   27.1883,      1016,
   27.2085,      1058,
   27.2287,      1038,
   27.2489,      1037,
   27.2692,       956,
   27.2894,       977,
   27.3096,       865,
   27.3298,       787,
     27.35,       856,
   27.3703,       724,
   27.3905,       696,
   27.4107,       698,
   27.4309,       645,
   27.4511,       638,
   27.4714,       606,
   27.4916,       607,
   27.5118,       559,
    27.532,       570,
   27.5522,       615,
   27.5724,       584,
   27.5927,       545,
   27.6129,       590,
   27.6331,       556,
   27.6533,       531,
   27.6735,       533,
   27.6938,       551,
    27.714,       521,
   27.7342,       517,
   27.7544,       524,
   27.7746,       469,
   27.7949,       561,
   27.8151,       481,
   27.8353,       548,
   27.8555,       522,
   27.8757,       491,
   27.8959,       529,
   27.9162,       525,
   27.9364,       466,
   27.9566,       471,
   27.9768,       482,
    27.997,       539,
   28.0173,       511,
   28.0375,       475,
   28.0577,       477,
   28.0779,       519,
   28.0981,       486,
   28.1184,       484,
   28.1386,       466,
   28.1588,       512,
    28.179,       510,
   28.1992,       494,
   28.2194,       520,
   28.2397,       517,
   28.2599,       449,
   28.2801,       477,
   28.3003,       441,
   28.3205,       496,
   28.3408,       457,
    28.361,       474,
   28.3812,       411,
   28.4014,       463,
   28.4216,       449,
   28.4419,       443,
   28.4621,       470,
   28.4823,       493,
   28.5025,       479,
   28.5227,       463,
   28.5429,       452,
   28.5632,       465,
   28.5834,       487,
   28.6036,       492,
   28.6238,       465,
    28.644,       488,
   28.6643,       483,
   28.6845,       493,
   28.7047,       483,
   28.7249,       470,
   28.7451,       453,
   28.7654,       478,
   28.7856,       460,
   28.8058,       433,
    28.826,       505,
   28.8462,       467,
   28.8664,       481,
   28.8867,       483,
   28.9069,       471,
   28.9271,       479,
   28.9473,       449,
   28.9675,       468,
   28.9878,       446,
    29.008,       469,
   29.0282,       476,
   29.0484,       472,
   29.0686,       443,
   29.0889,       440,
   29.1091,       474,
   29.1293,       450,
   29.1495,       461,
   29.1697,       449,
   29.1899,       477,
   29.2102,       425,
   29.2304,       489,
   29.2506,       480,
   29.2708,       491,
    29.291,       478,
   29.3113,       482,
   29.3315,       484,
   29.3517,       445,
   29.3719,       440,
   29.3921,       436,
   29.4124,       492,
   29.4326,       430,
   29.4528,       472,
    29.473,       466,
   29.4932,       502,
   29.5134,       505,
   29.5337,       481,
   29.5539,       467,
   29.5741,       459,
   29.5943,       464,
   29.6145,       493,
   29.6348,       464,
    29.655,       467,
   29.6752,       462,
   29.6954,       479,
   29.7156,       462,
   29.7359,       524,
   29.7561,       497,
   29.7763,       487,
   29.7965,       517,
   29.8167,       503,
   29.8369,       498,
   29.8572,       488,
   29.8774,       496,
   29.8976,       486,
   29.9178,       462,
    29.938,       483,
   29.9583,       490,
   29.9785,       475,
   29.9987,       492,
   30.0189,       457,
   30.0391,       486,
   30.0594,       468,
   30.0796,       512,
   30.0998,       455,
     30.12,       502,
   30.1402,       511,
   30.1604,       556,
   30.1807,       486,
   30.2009,       541,
   30.2211,       562,
   30.2413,       538,
   30.2615,       590,
   30.2818,       568,
    30.302,       624,
   30.3222,       620,
   30.3424,       673,
   30.3626,       753,
   30.3829,       780,
   30.4031,       901,
   30.4233,      1136,
   30.4435,      1387,
   30.4637,      1679,
   30.4839,      1965,
   30.5042,      2402,
   30.5244,      2437,
   30.5446,      2248,
   30.5648,      2007,
    30.585,      1729,
   30.6053,      1433,
   30.6255,      1204,
   30.6457,       983,
   30.6659,       805,
   30.6861,       718,
   30.7064,       693,
   30.7266,       645,
   30.7468,       606,
    30.767,       641,
   30.7872,       607,
   30.8074,       628,
   30.8277,       597,
   30.8479,       560,
   30.8681,       587,
   30.8883,       561,
   30.9085,       549,
   30.9288,       558,
    30.949,       540,
   30.9692,       534,
   30.9894,       596,
   31.0096,       660,
   31.0299,       640,
   31.0501,       657,
   31.0703,       695,
   31.0905,       668,
   31.1107,       650,
   31.1309,       561,
   31.1512,       518,
   31.1714,       520,
   31.1916,       529,
   31.2118,       520,
    31.232,       576,
   31.2523,       535,
   31.2725,       577,
   31.2927,       565,
   31.3129,       603,
   31.3331,       638,
   31.3534,       637,
   31.3736,       623,
   31.3938,       655,
    31.414,       604,
   31.4342,       633,
   31.4544,       652,
   31.4747,       657,
   31.4949,       626,
   31.5151,       669,
   31.5353,       714,
   31.5555,       757,
   31.5758,       836,
    31.596,       860,
   31.6162,      1038,
   31.6364,      1213,
   31.6566,      1324,
   31.6769,      1458,
   31.6971,      1405,
   31.7173,      1355,
   31.7375,      1326,
   31.7577,      1154,
   31.7779,      1068,
   31.7982,      1005,
   31.8184,       994,
   31.8386,       986,
   31.8588,      1092,
    31.879,      1113,
   31.8993,      1067,
   31.9195,      1018,
   31.9397,       965,
   31.9599,       851,
   31.9801,       779,
   32.0004,       685,
   32.0206,       628,
   32.0408,       582,
    32.061,       548,
   32.0812,       531,
   32.1014,       565,
   32.1217,       497,
   32.1419,       547,
   32.1621,       497,
   32.1823,       479,
   32.2025,       464,
   32.2228,       519,
    32.243,       478,
   32.2632,       456,
   32.2834,       435,
   32.3036,       501,
   32.3239,       450,
   32.3441,       483,
   32.3643,       457,
   32.3845,       461,
   32.4047,       490,
   32.4249,       446,
   32.4452,       448,
   32.4654,       426,
   32.4856,       421,
   32.5058,       443,
    32.526,       426,
   32.5463,       423,
   32.5665,       437,
   32.5867,       416,
   32.6069,       487,
   32.6271,       455,
   32.6474,       421,
   32.6676,       444,
   32.6878,       445,
    32.708,       476,
   32.7282,       447,
   32.7484,       451,
   32.7687,       423,
   32.7889,       443,
   32.8091,       482,
   32.8293,       438,
   32.8495,       435,
   32.8698,       461,
     32.89,       442,
   32.9102,       424,
   32.9304,       438,
   32.9506,       459,
   32.9709,       405,
   32.9911,       428,
   33.0113,       376,
   33.0315,       420,
   33.0517,       470,
   33.0719,       451,
   33.0922,       417,
   33.1124,       431,
   33.1326,       482,
   33.1528,       437,
    33.173,       422,
   33.1933,       438,
   33.2135,       461,
   33.2337,       445,
   33.2539,       462,
   33.2741,       438,
   33.2944,       458,
   33.3146,       511,
   33.3348,       493,
    33.355,       534,
   33.3752,       502,
   33.3954,       583,
   33.4157,       565,
   33.4359,       486,
   33.4561,       507,
   33.4763,       461,
   33.4965,       463,
   33.5168,       458,
    33.537,       474,
   33.5572,       475,
   33.5774,       458,
   33.5976,       444,
   33.6179,       442,
   33.6381,       491,
   33.6583,       532,
   33.6785,       528,
   33.6987,       467,
   33.7189,       494,
   33.7392,       491,
   33.7594,       526,
   33.7796,       537,
   33.7998,       559,
     33.82,       585,
   33.8403,       579,
   33.8605,       611,
   33.8807,       632,
   33.9009,       665,
   33.9211,       666,
   33.9414,       688,
   33.9616,       674,
   33.9818,       614,
    34.002,       651,
   34.0222,       592,
   34.0424,       581,
   34.0627,       630,
   34.0829,       565,
   34.1031,       602,
   34.1233,       615,
   34.1435,       626,
   34.1638,       617,
    34.184,       640,
   34.2042,       647,
   34.2244,       707,
   34.2446,       792,
   34.2649,       890,
   34.2851,      1007,
   34.3053,      1144,
   34.3255,      1160,
   34.3457,      1136,
   34.3659,      1196,
   34.3862,      1153,
   34.4064,      1165,
   34.4266,      1196,
   34.4468,      1250,
    34.467,      1350,
   34.4873,      1478,
   34.5075,      1574,
   34.5277,      1860,
   34.5479,      2082,
   34.5681,      2397,
   34.5884,      2657,
   34.6086,      3297,
   34.6288,      3662,
    34.649,      4141,
   34.6692,      4560,
   34.6894,      4988,
   34.7097,      5274,
   34.7299,      5502,
   34.7501,      5686,
   34.7703,      5799,
   34.7905,      5872,
   34.8108,      5505,
    34.831,      5385,
   34.8512,      5177,
   34.8714,      4931,
   34.8916,      4554,
   34.9119,      4168,
   34.9321,      3925,
   34.9523,      3464,
   34.9725,      3211,
   34.9927,      2905,
   35.0129,      2733,
   35.0332,      2547,
   35.0534,      2331,
   35.0736,      2054,
   35.0938,      1964,
    35.114,      1787,
   35.1343,      1676,
   35.1545,      1640,
   35.1747,      1490,
   35.1949,      1461,
   35.2151,      1312,
   35.2354,      1240,
   35.2556,      1241,
   35.2758,      1169,
    35.296,      1152,
   35.3162,      1140,
   35.3365,      1060,
   35.3567,      1033,
   35.3769,      1083,
   35.3971,       982,
   35.4173,       995,
   35.4375,       928,
   35.4578,       980,
    35.478,       886,
   35.4982,       954,
   35.5184,       903,
   35.5386,       857,
   35.5589,       866,
   35.5791,       843,
   35.5993,       884,
   35.6195,       822,
   35.6397,       849,
     35.66,       816,
   35.6802,       752,
   35.7004,       786,
   35.7206,       710,
   35.7408,       719,
    35.761,       718,
   35.7813,       706,
   35.8015,       756,
   35.8217,       739,
   35.8419,       719,
   35.8621,       692,
   35.8824,       702,
   35.9026,       659,
   35.9228,       708,
    35.943,       676,
   35.9632,       649,
   35.9835,       677,
   36.0037,       665,
   36.0239,       626,
   36.0441,       646,
   36.0643,       667,
   36.0845,       643,
   36.1048,       651,
    36.125,       573,
   36.1452,       609,
   36.1654,       606,
   36.1856,       649,
   36.2059,       668,
   36.2261,       681,
   36.2463,       721,
   36.2665,       696,
   36.2867,       682,
    36.307,       667,
   36.3272,       661,
   36.3474,       647,
   36.3676,       590,
   36.3878,       521,
    36.408,       518,
   36.4283,       563,
   36.4485,       544,
   36.4687,       549,
   36.4889,       542,
   36.5091,       544,
   36.5294,       542,
   36.5496,       498,
   36.5698,       504,
     36.59,       553,
   36.6102,       563,
   36.6305,       556,
   36.6507,       606,
   36.6709,       599,
   36.6911,       581,
   36.7113,       564,
   36.7315,       613,
   36.7518,       650,
    36.772,       697,
   36.7922,       703,
   36.8124,       792,
   36.8326,       870,
   36.8529,      1029,
   36.8731,      1369,
   36.8933,      1935,
   36.9135,      2699,
   36.9337,      3555,
    36.954,      4683,
   36.9742,      5022,
   36.9944,      4780,
   37.0146,      4396,
   37.0348,      3911,
    37.055,      3574,
   37.0753,      2976,
   37.0955,      2255,
   37.1157,      1781,
   37.1359,      1388,
   37.1561,      1128,
   37.1764,       946,
   37.1966,       939,
   37.2168,       825,
    37.237,       797,
   37.2572,       730,
   37.2775,       756,
   37.2977,       691,
   37.3179,       655,
   37.3381,       636,
   37.3583,       558,
   37.3785,       585,
   37.3988,       587,
    37.419,       549,
   37.4392,       561,
   37.4594,       609,
   37.4796,       517,
   37.4999,       541,
   37.5201,       560,
   37.5403,       571,
   37.5605,       548,
   37.5807,       595,
    37.601,       549,
   37.6212,       622,
   37.6414,       625,
   37.6616,       605,
   37.6818,       567,
    37.702,       550,
   37.7223,       528,
   37.7425,       507,
   37.7627,       457,
   37.7829,       478,
   37.8031,       462,
   37.8234,       458,
   37.8436,       485,
   37.8638,       468,
    37.884,       431,
   37.9042,       438,
   37.9245,       478,
   37.9447,       427,
   37.9649,       470,
   37.9851,       490,
   38.0053,       446,
   38.0255,       499,
   38.0458,       486,
    38.066,       491,
   38.0862,       473,
   38.1064,       477,
   38.1266,       529,
   38.1469,       547,
   38.1671,       597,
   38.1873,       488,
   38.2075,       622,
   38.2277,       552,
    38.248,       593,
   38.2682,       585,
   38.2884,       559,
   38.3086,       492,
   38.3288,       527,
    38.349,       511,
   38.3693,       511,
   38.3895,       526,
   38.4097,       565,
   38.4299,       560,
   38.4501,       549,
   38.4704,       631,
   38.4906,       584,
   38.5108,       718,
    38.531,       823,
   38.5512,       924,
   38.5715,      1148,
   38.5917,      1341,
   38.6119,      1309,
   38.6321,      1308,
   38.6523,      1236,
   38.6725,      1168,
   38.6928,      1056,
    38.713,       964,
   38.7332,       805,
   38.7534,       734,
   38.7736,       619,
   38.7939,       613,
   38.8141,       546,
   38.8343,       583,
   38.8545,       535,
   38.8747,       530,
    38.895,       513,
   38.9152,       563,
   38.9354,       507,
   38.9556,       532,
   38.9758,       502,
    38.996,       470,
   39.0163,       445,
   39.0365,       469,
   39.0567,       429,
   39.0769,       453,
   39.0971,       397,
   39.1174,       394,
   39.1376,       413,
   39.1578,       380,
    39.178,       389,
   39.1982,       457,
   39.2185,       413,
   39.2387,       397,
   39.2589,       404,
   39.2791,       429,
   39.2993,       406,
   39.3195,       366,
   39.3398,       360,
     39.36,       424,
   39.3802,       405,
   39.4004,       388,
   39.4206,       412,
   39.4409,       387,
   39.4611,       395,
   39.4813,       381,
   39.5015,       332,
   39.5217,       407,
    39.542,       393,
   39.5622,       422,
   39.5824,       403,
   39.6026,       383,
   39.6228,       377,
    39.643,       399,
   39.6633,       417,
   39.6835,       426,
   39.7037,       380,
   39.7239,       388,
   39.7441,       381,
   39.7644,       397,
   39.7846,       372,
   39.8048,       379,
    39.825,       382,
   39.8452,       395,
   39.8655,       415,
   39.8857,       405,
   39.9059,       406,
   39.9261,       416,
   39.9463,       361,
   39.9665,       372,
   39.9868,       389,
    40.007,       383,
   40.0272,       391,
   40.0474,       423,
   40.0676,       386,
   40.0879,       397,
   40.1081,       347,
   40.1283,       400,
   40.1485,       435,
   40.1687,       366,
    40.189,       378,
   40.2092,       393,
   40.2294,       430,
   40.2496,       423,
   40.2698,       375,
     40.29,       423,
   40.3103,       427,
   40.3305,       424,
   40.3507,       422,
   40.3709,       435,
   40.3911,       465,
   40.4114,       471,
   40.4316,       418,
   40.4518,       427,
    40.472,       431,
   40.4922,       406,
   40.5125,       433,
   40.5327,       461,
   40.5529,       400,
   40.5731,       444,
   40.5933,       417,
   40.6135,       462,
   40.6338,       424,
    40.654,       432,
   40.6742,       445,
   40.6944,       439,
   40.7146,       409,
   40.7349,       396,
   40.7551,       392,
   40.7753,       409,
   40.7955,       468,
   40.8157,       371,
    40.836,       436,
   40.8562,       439,
   40.8764,       416,
   40.8966,       389,
   40.9168,       386,
    40.937,       388,
   40.9573,       407,
   40.9775,       415,
   40.9977,       419,
   41.0179,       399,
   41.0381,       403,
   41.0584,       416,
   41.0786,       444,
   41.0988,       424,
    41.119,       392,
   41.1392,       412,
   41.1595,       412,
   41.1797,       418,
   41.1999,       373,
   41.2201,       393,
   41.2403,       378,
   41.2605,       391,
   41.2808,       414,
    41.301,       381,
   41.3212,       411,
   41.3414,       375,
   41.3616,       366,
   41.3819,       374,
   41.4021,       392,
   41.4223,       409,
   41.4425,       425,
   41.4627,       398,
    41.483,       372,
   41.5032,       388,
   41.5234,       393,
   41.5436,       406,
   41.5638,       392,
    41.584,       388,
   41.6043,       391,
   41.6245,       412,
   41.6447,       374,
   41.6649,       436,
   41.6851,       406,
   41.7054,       412,
   41.7256,       418,
   41.7458,       425,
    41.766,       431,
   41.7862,       420,
   41.8065,       426,
   41.8267,       461,
   41.8469,       455,
   41.8671,       429,
   41.8873,       488,
   41.9075,       489,
   41.9278,       484,
    41.948,       524,
   41.9682,       512,
   41.9884,       569,
   42.0086,       632,
   42.0289,       671,
   42.0491,       695,
   42.0693,       784,
   42.0895,       888,
   42.1097,      1011,
     42.13,      1006,
   42.1502,       951,
   42.1704,      1017,
   42.1906,       981,
   42.2108,      1015,
    42.231,      1045,
   42.2513,       920,
   42.2715,       862,
   42.2917,       867,
   42.3119,       793,
   42.3321,       795,
   42.3524,       802,
   42.3726,       833,
   42.3928,       759,
    42.413,       781,
   42.4332,       799,
   42.4535,       840,
   42.4737,       947,
   42.4939,       933,
   42.5141,       968,
   42.5343,      1012,
   42.5545,       946,
   42.5748,      1019,
    42.595,      1073,
   42.6152,      1052,
   42.6354,       962,
   42.6556,      1020,
   42.6759,       988,
   42.6961,       972,
   42.7163,       897,
   42.7365,       900,
   42.7567,       877,
    42.777,       802,
   42.7972,       799,
   42.8174,       728,
   42.8376,       712,
   42.8578,       690,
    42.878,       628,
   42.8983,       615,
   42.9185,       585,
   42.9387,       572,
   42.9589,       574,
   42.9791,       525,
   42.9994,       539,
   43.0196,       485,
   43.0398,       529,
     43.06,       482,
   43.0802,       457,
   43.1005,       471,
   43.1207,       465,
   43.1409,       458,
   43.1611,       489,
   43.1813,       482,
   43.2015,       458,
   43.2218,       511,
    43.242,       455,
   43.2622,       491,
   43.2824,       469,
   43.3026,       488,
   43.3229,       471,
   43.3431,       491,
   43.3633,       504,
   43.3835,       523,
   43.4037,       487,
    43.424,       571,
   43.4442,       571,
   43.4644,       577,
   43.4846,       633,
   43.5048,       656,
    43.525,       629,
   43.5453,       621,
   43.5655,       578,
   43.5857,       594,
   43.6059,       561,
   43.6261,       583,
   43.6464,       536,
   43.6666,       528,
   43.6868,       488,
    43.707,       478,
   43.7272,       451,
   43.7475,       441,
   43.7677,       431,
   43.7879,       423,
   43.8081,       425,
   43.8283,       378,
   43.8485,       432,
   43.8688,       384,
    43.889,       434,
   43.9092,       444,
   43.9294,       430,
   43.9496,       445,
   43.9699,       427,
   43.9901,       444,
   44.0103,       454,
   44.0305,       470,
   44.0507,       476,
    44.071,       491,
   44.0912,       448,
   44.1114,       567,
   44.1316,       616,
   44.1518,       706,
    44.172,       811,
   44.1923,       862,
   44.2125,      1044,
   44.2327,      1054,
   44.2529,      1041,
   44.2731,       985,
   44.2934,       948,
   44.3136,       830,
   44.3338,       861,
    44.354,       724,
   44.3742,       617,
   44.3945,       588,
   44.4147,       565,
   44.4349,       492,
   44.4551,       514,
   44.4753,       480,
   44.4955,       441,
   44.5158,       518,
    44.536,       469,
   44.5562,       461,
   44.5764,       418,
   44.5966,       415,
   44.6169,       471,
   44.6371,       458,
   44.6573,       455,
   44.6775,       461,
   44.6977,       461,
    44.718,       474,
   44.7382,       531,
   44.7584,       563,
   44.7786,       556,
   44.7988,       598,
    44.819,       656,
   44.8393,       678,
   44.8595,       709,
   44.8797,       802,
   44.8999,       823,
   44.9201,       719,
   44.9404,       733,
   44.9606,       697,
   44.9808,       713,
    45.001,       645,
   45.0212,       645,
   45.0415,       725,
   45.0617,       754,
   45.0819,       768,
   45.1021,       777,
   45.1223,       669,
   45.1425,       622,
   45.1628,       630,
    45.183,       584,
   45.2032,       606,
   45.2234,       506,
   45.2436,       519,
   45.2639,       465,
   45.2841,       374,
   45.3043,       413,
   45.3245,       415,
   45.3447,       416,
    45.365,       389,
   45.3852,       399,
   45.4054,       365,
   45.4256,       373,
   45.4458,       354,
    45.466,       388,
   45.4863,       378,
   45.5065,       360,
   45.5267,       394,
   45.5469,       351,
   45.5671,       371,
   45.5874,       382,
   45.6076,       363,
   45.6278,       339,
    45.648,       323,
   45.6682,       365,
   45.6885,       332,
   45.7087,       365,
   45.7289,       365,
   45.7491,       361,
   45.7693,       374,
   45.7895,       343,
   45.8098,       350,
     45.83,       354,
   45.8502,       395,
   45.8704,       372,
   45.8906,       370,
   45.9109,       379,
   45.9311,       347,
   45.9513,       366,
   45.9715,       357,
   45.9917,       405,
    46.012,       408,
   46.0322,       351,
   46.0524,       422,
   46.0726,       427,
   46.0928,       448,
   46.1131,       424,
   46.1333,       454,
   46.1535,       430,
   46.1737,       432,
   46.1939,       472,
   46.2141,       444,
   46.2344,       457,
   46.2546,       479,
   46.2748,       445,
    46.295,       464,
   46.3152,       495,
   46.3355,       455,
   46.3557,       450,
   46.3759,       473,
   46.3961,       524,
   46.4163,       590,
   46.4366,       532,
   46.4568,       610,
    46.477,       583,
   46.4972,       667,
   46.5174,       758,
   46.5376,       747,
   46.5579,       861,
   46.5781,       938,
   46.5983,       953,
   46.6185,      1016,
   46.6387,      1046,
    46.659,      1071,
   46.6792,      1060,
   46.6994,      1141,
   46.7196,      1169,
   46.7398,      1214,
   46.7601,      1185,
   46.7803,      1190,
   46.8005,      1146,
   46.8207,      1133,
   46.8409,      1106,
   46.8611,      1061,
   46.8814,      1037,
   46.9016,      1017,
   46.9218,       893,
    46.942,       906,
   46.9622,       934,
   46.9825,       859,
   47.0027,       827,
   47.0229,       805,
   47.0431,       794,
   47.0633,       721,
   47.0836,       708,
   47.1038,       664,
    47.124,       663,
   47.1442,       600,
   47.1644,       549,
   47.1846,       589,
   47.2049,       535,
   47.2251,       534,
   47.2453,       527,
   47.2655,       507,
   47.2857,       481,
    47.306,       521,
   47.3262,       478,
   47.3464,       485,
   47.3666,       464,
   47.3868,       437,
   47.4071,       484,
   47.4273,       451,
   47.4475,       461,
   47.4677,       440,
   47.4879,       509,
   47.5081,       443,
   47.5284,       498,
   47.5486,       448,
   47.5688,       454,
    47.589,       521,
   47.6092,       451,
   47.6295,       474,
   47.6497,       462,
   47.6699,       457,
   47.6901,       450,
   47.7103,       442,
   47.7306,       448,
   47.7508,       445,
    47.771,       433,
   47.7912,       451,
   47.8114,       415,
   47.8316,       441,
   47.8519,       472,
   47.8721,       430,
   47.8923,       465,
   47.9125,       459,
   47.9327,       432,
    47.953,       453,
   47.9732,       469,
   47.9934,       473,
   48.0136,       433,
   48.0338,       473,
   48.0541,       479,
   48.0743,       446,
   48.0945,       457,
   48.1147,       543,
   48.1349,       532,
   48.1551,       563,
   48.1754,       567,
   48.1956,       583,
   48.2158,       543,
    48.236,       533,
   48.2562,       520,
   48.2765,       517,
   48.2967,       517,
   48.3169,       456,
   48.3371,       429,
   48.3573,       454,
   48.3776,       382,
   48.3978,       412,
    48.418,       427,
   48.4382,       366,
   48.4584,       349,
   48.4786,       367,
   48.4989,       376,
   48.5191,       391,
   48.5393,       355,
   48.5595,       385,
   48.5797,       326,
      48.6,       385,
   48.6202,       361,
   48.6404,       355,
   48.6606,       392,
   48.6808,       355,
   48.7011,       343,
   48.7213,       341,
   48.7415,       362,
   48.7617,       321,
   48.7819,       340,
   48.8021,       331,
   48.8224,       357,
   48.8426,       326,
   48.8628,       316,
    48.883,       332,
   48.9032,       321,
   48.9235,       345,
   48.9437,       323,
   48.9639,       319,
   48.9841,       316,
   49.0043,       323,
   49.0246,       323,
   49.0448,       331,
    49.065,       319,
   49.0852,       328,
   49.1054,       320,
   49.1256,       310,
   49.1459,       329,
   49.1661,       305,
   49.1863,       316,
   49.2065,       324,
   49.2267,       334,
    49.247,       346,
   49.2672,       335,
   49.2874,       366,
   49.3076,       338,
   49.3278,       346,
   49.3481,       307,
   49.3683,       322,
   49.3885,       310,
   49.4087,       307,
   49.4289,       318,
   49.4491,       309,
   49.4694,       319,
   49.4896,       332,
   49.5098,       347,
     49.53,       355,
   49.5502,       306,
   49.5705,       326,
   49.5907,       328,
   49.6109,       322,
   49.6311,       342,
   49.6513,       351,
   49.6716,       333,
   49.6918,       303,
    49.712,       371,
   49.7322,       342,
   49.7524,       334,
   49.7726,       336,
   49.7929,       354,
   49.8131,       339,
   49.8333,       346,
   49.8535,       332,
   49.8737,       370,
    49.894,       351,
   49.9142,       368,
   49.9344,       376,
   49.9546,       387,
   49.9748,       378,
   49.9951,       357,
   50.0153,       359,
   50.0355,       380,
   50.0557,       361,
   50.0759,       404,
   50.0961,       406,
   50.1164,       424,
   50.1366,       479,
   50.1568,       455,
    50.177,       574,
   50.1972,       659,
   50.2175,       701,
   50.2377,       735,
   50.2579,       615,
   50.2781,       602,
   50.2983,       588,
   50.3186,       583,
   50.3388,       538,
    50.359,       566,
   50.3792,       498,
   50.3994,       444,
   50.4196,       411,
   50.4399,       385,
   50.4601,       358,
   50.4803,       371,
   50.5005,       400,
   50.5207,       360,
    50.541,       393,
   50.5612,       412,
   50.5814,       410,
   50.6016,       426,
   50.6218,       442,
   50.6421,       441,
   50.6623,       398,
   50.6825,       443,
   50.7027,       421,
   50.7229,       426,
   50.7431,       434,
   50.7634,       430,
   50.7836,       470,
   50.8038,       448,
    50.824,       428,
   50.8442,       461,
   50.8645,       455,
   50.8847,       454,
   50.9049,       483,
   50.9251,       453,
   50.9453,       496,
   50.9656,       530,
   50.9858,       580,
    51.006,       616,
   51.0262,       653,
   51.0464,       701,
   51.0666,       690,
   51.0869,       727,
   51.1071,       802,
   51.1273,       859,
   51.1475,       924,
   51.1677,       887,
    51.188,       983,
   51.2082,       975,
   51.2284,      1026,
   51.2486,      1030,
   51.2688,      1008,
   51.2891,       964,
   51.3093,       961,
   51.3295,       910,
   51.3497,       944,
   51.3699,       930,
   51.3901,       920,
   51.4104,       863,
   51.4306,       866,
   51.4508,       829,
    51.471,       785,
   51.4912,       751,
   51.5115,       701,
   51.5317,       681,
   51.5519,       653,
   51.5721,       629,
   51.5923,       610,
   51.6126,       567,
   51.6328,       582,
    51.653,       553,
   51.6732,       555,
   51.6934,       496,
   51.7136,       526,
   51.7339,       505,
   51.7541,       490,
   51.7743,       488,
   51.7945,       486,
   51.8147,       477,
    51.835,       457,
   51.8552,       458,
   51.8754,       446,
   51.8956,       441,
   51.9158,       435,
   51.9361,       395,
   51.9563,       436,
   51.9765,       409,
   51.9967,       413,
   52.0169,       414,
   52.0371,       384,
   52.0574,       393,
   52.0776,       418,
   52.0978,       421,
    52.118,       405,
   52.1382,       412,
   52.1585,       416,
   52.1787,       393,
   52.1989,       402,
   52.2191,       331,
   52.2393,       392,
   52.2596,       388,
   52.2798,       369,
      52.3,       375,
   52.3202,       409,
   52.3404,       374,
   52.3606,       366,
   52.3809,       353,
   52.4011,       371,
   52.4213,       363,
   52.4415,       374,
   52.4617,       382,
    52.482,       397,
   52.5022,       381,
   52.5224,       375,
   52.5426,       375,
   52.5628,       325,
   52.5831,       347,
   52.6033,       409,
   52.6235,       359,
   52.6437,       334,
   52.6639,       351,
   52.6841,       333,
   52.7044,       341,
   52.7246,       359,
   52.7448,       407,
    52.765,       346,
   52.7852,       381,
   52.8055,       388,
   52.8257,       369,
   52.8459,       383,
   52.8661,       392,
   52.8863,       456,
   52.9066,       377,
   52.9268,       402,
    52.947,       458,
   52.9672,       431,
   52.9874,       439,
   53.0076,       463,
   53.0279,       481,
   53.0481,       518,
   53.0683,       507,
   53.0885,       530,
   53.1087,       556,
    53.129,       686,
   53.1492,       714,
   53.1694,       843,
   53.1896,       975,
   53.2098,      1296,
   53.2301,      1595,
   53.2503,      1901,
   53.2705,      2071,
   53.2907,      2120,
   53.3109,      1876,
   53.3311,      1726,
   53.3514,      1570,
   53.3716,      1594,
   53.3918,      1518,
    53.412,      1469,
   53.4322,      1220,
   53.4525,      1093,
   53.4727,       991,
   53.4929,       859,
   53.5131,       758,
   53.5333,       736,
   53.5536,       722,
   53.5738,       694,
    53.594,       668,
   53.6142,       708,
   53.6344,       803,
   53.6546,       881,
   53.6749,       995,
   53.6951,      1178,
   53.7153,      1334,
   53.7355,      1472,
   53.7557,      1405,
    53.776,      1277,
   53.7962,      1200,
   53.8164,      1088,
   53.8366,      1077,
   53.8568,       948,
   53.8771,       965,
   53.8973,       834,
   53.9175,       781,
   53.9377,       615,
   53.9579,       557,
   53.9781,       519,
   53.9984,       500,
   54.0186,       443,
   54.0388,       435,
    54.059,       414,
   54.0792,       416,
   54.0995,       388,
   54.1197,       419,
   54.1399,       387,
   54.1601,       406,
   54.1803,       363,
   54.2006,       334,
   54.2208,       389,
    54.241,       404,
   54.2612,       360,
   54.2814,       364,
   54.3016,       388,
   54.3219,       348,
   54.3421,       334,
   54.3623,       351,
   54.3825,       329,
   54.4027,       353,
    54.423,       323,
   54.4432,       346,
   54.4634,       337,
   54.4836,       347,
   54.5038,       352,
   54.5241,       354,
   54.5443,       347,
   54.5645,       346,
   54.5847,       305,
   54.6049,       369,
   54.6251,       318,
   54.6454,       346,
   54.6656,       318,
   54.6858,       319,
    54.706,       307,
   54.7262,       325,
   54.7465,       333,
   54.7667,       306,
   54.7869,       335,
   54.8071,       323,
   54.8273,       324,
   54.8476,       298,
   54.8678,       316,
    54.888,       312,
   54.9082,       358,
   54.9284,       299,
   54.9486,       310,
   54.9689,       347,
   54.9891,       338,
   55.0093,       336,
   55.0295,       343,
   55.0497,       348,
     55.07,       297,
   55.0902,       293,
   55.1104,       352,
   55.1306,       344,
   55.1508,       329,
   55.1711,       350,
   55.1913,       319,
   55.2115,       318,
   55.2317,       331,
   55.2519,       302,
   55.2721,       348,
   55.2924,       328,
   55.3126,       348,
   55.3328,       333,
    55.353,       347,
   55.3732,       338,
   55.3935,       335,
   55.4137,       377,
   55.4339,       334,
   55.4541,       364,
   55.4743,       346,
   55.4946,       324,
   55.5148,       362,
    55.535,       349,
   55.5552,       349,
   55.5754,       350,
   55.5956,       362,
   55.6159,       368,
   55.6361,       377,
   55.6563,       389,
   55.6765,       389,
   55.6967,       424,
    55.717,       444,
   55.7372,       401,
   55.7574,       450,
   55.7776,       448,
   55.7978,       461,
   55.8181,       422,
   55.8383,       507,
   55.8585,       524,
   55.8787,       511,
   55.8989,       539,
   55.9191,       511,
   55.9394,       545,
   55.9596,       598,
   55.9798,       607,
        56,       592,
   56.0202,       564,
   56.0405,       624,
   56.0607,       611,
   56.0809,       626,
   56.1011,       614,
   56.1213,       677,
   56.1416,       631,
   56.1618,       671,
    56.182,       672,
   56.2022,       697,
   56.2224,       675,
   56.2426,       709,
   56.2629,       718,
   56.2831,       799,
   56.3033,       789,
   56.3235,       757,
   56.3437,       825,
    56.364,       928,
   56.3842,       891,
   56.4044,       891,
   56.4246,       884,
   56.4448,       926,
   56.4651,       992,
   56.4853,       966,
   56.5055,       991,
   56.5257,      1040,
   56.5459,      1047,
   56.5661,      1083,
   56.5864,      1124,
   56.6066,      1133,
   56.6268,      1193,
    56.647,      1280,
   56.6672,      1285,
   56.6875,      1299,
   56.7077,      1235,
   56.7279,      1297,
   56.7481,      1224,
   56.7683,      1240,
   56.7886,      1250,
   56.8088,      1241,
    56.829,      1288,
   56.8492,      1219,
   56.8694,      1110,
   56.8897,      1074,
   56.9099,      1081,
   56.9301,       974,
   56.9503,       911,
   56.9705,       952,
   56.9907,       912,
    57.011,       865,
   57.0312,       817,
   57.0514,       788,
   57.0716,       724,
   57.0918,       705,
   57.1121,       702,
   57.1323,       603,
   57.1525,       669,
   57.1727,       621,
   57.1929,       631,
   57.2132,       566,
   57.2334,       594,
   57.2536,       593,
   57.2738,       550,
    57.294,       515,
   57.3142,       583,
   57.3345,       539,
   57.3547,       582,
   57.3749,       586,
   57.3951,       516,
   57.4153,       578,
   57.4356,       557,
   57.4558,       602,
    57.476,       627,
   57.4962,       639,
   57.5164,       678,
   57.5367,       703,
   57.5569,       752,
   57.5771,       756,
   57.5973,       837,
   57.6175,       805,
   57.6377,       859,
    57.658,       873,
   57.6782,       898,
   57.6984,       939,
   57.7186,       973,
   57.7388,       962,
   57.7591,       909,
   57.7793,       995,
   57.7995,       964,
   57.8197,      1033,
   57.8399,       956,
   57.8602,       943,
   57.8804,       946,
   57.9006,       880,
   57.9208,       910,
    57.941,       865,
   57.9612,       843,
   57.9815,       829,
   58.0017,       846,
   58.0219,       869,
   58.0421,       826,
   58.0623,       777,
   58.0826,       728,
   58.1028,       706,
    58.123,       727,
   58.1432,       673,
   58.1634,       685,
   58.1837,       635,
   58.2039,       660,
   58.2241,       623,
   58.2443,       612,
   58.2645,       597,
   58.2847,       635,
    58.305,       568,
   58.3252,       538,
   58.3454,       529,
   58.3656,       522,
   58.3858,       533,
   58.4061,       495,
   58.4263,       518,
   58.4465,       450,
   58.4667,       504,
   58.4869,       459,
   58.5072,       467,
   58.5274,       458,
   58.5476,       488,
   58.5678,       455,
    58.588,       455,
   58.6082,       454,
   58.6285,       452,
   58.6487,       423,
   58.6689,       455,
   58.6891,       438,
   58.7093,       445,
   58.7296,       465,
   58.7498,       439,
     58.77,       443,
   58.7902,       470,
   58.8104,       468,
   58.8307,       489,
   58.8509,       513,
   58.8711,       525,
   58.8913,       575,
   58.9115,       609,
   58.9317,       661,
    58.952,       723,
   58.9722,       757,
   58.9924,       747,
   59.0126,       704,
   59.0328,       685,
   59.0531,       624,
   59.0733,       669,
   59.0935,       689,
   59.1137,       575,
   59.1339,       587,
   59.1542,       539,
   59.1744,       520,
   59.1946,       449,
   59.2148,       438,
    59.235,       404,
   59.2552,       411,
   59.2755,       415,
   59.2957,       367,
   59.3159,       346,
   59.3361,       393,
   59.3563,       370,
   59.3766,       333,
   59.3968,       340,
    59.417,       300,
   59.4372,       344,
   59.4574,       378,
   59.4777,       356,
   59.4979,       331,
   59.5181,       352,
   59.5383,       317,
   59.5585,       316,
   59.5787,       325,
    59.599,       355,
   59.6192,       340,
   59.6394,       326,
   59.6596,       365,
   59.6798,       359,
   59.7001,       362,
   59.7203,       333,
   59.7405,       326,
   59.7607,       339,
   59.7809,       303,
   59.8012,       330,
   59.8214,       345,
   59.8416,       322,
   59.8618,       310,
    59.882,       314,
   59.9022,       329,
   59.9225,       300,
   59.9427,       308,
   59.9629,       321,
   59.9831,       305,
   60.0033,       316,
   60.0236,       269,
   60.0438,       321,
    60.064,       291,
   60.0842,       313,
   60.1044,       301,
   60.1247,       284,
   60.1449,       294,
   60.1651,       289,
   60.1853,       316,
   60.2055,       294,
   60.2257,       284,
    60.246,       287,
   60.2662,       300,
   60.2864,       315,
   60.3066,       280,
   60.3268,       309,
   60.3471,       283,
   60.3673,       260,
   60.3875,       268,
   60.4077,       247,
   60.4279,       295,
   60.4482,       309,
   60.4684,       275,
   60.4886,       268,
   60.5088,       280,
    60.529,       287,
   60.5492,       272,
   60.5695,       272,
   60.5897,       274,
   60.6099,       304,
   60.6301,       275,
   60.6503,       281,
   60.6706,       262,
   60.6908,       282,
    60.711,       276,
   60.7312,       260,
   60.7514,       294,
   60.7717,       279,
   60.7919,       285,
   60.8121,       266,
   60.8323,       265,
   60.8525,       300,
   60.8727,       287,
    60.893,       277,
   60.9132,       272,
   60.9334,       312,
   60.9536,       265,
   60.9738,       286,
   60.9941,       277,
   61.0143,       343,
   61.0345,       297,
   61.0547,       307,
   61.0749,       290,
   61.0952,       301,
   61.1154,       316,
   61.1356,       311,
   61.1558,       322,
    61.176,       323,
   61.1962,       292,
   61.2165,       326,
   61.2367,       310,
   61.2569,       267,
   61.2771,       305,
   61.2973,       284,
   61.3176,       314,
   61.3378,       291,
    61.358,       303,
   61.3782,       308,
   61.3984,       294,
   61.4187,       303,
   61.4389,       311,
   61.4591,       341,
   61.4793,       329,
   61.4995,       372,
   61.5197,       398,
     61.54,       414,
   61.5602,       480,
   61.5804,       535,
   61.6006,       612,
   61.6208,       637,
   61.6411,       704,
   61.6613,       690,
   61.6815,       700,
   61.7017,       584,
   61.7219,       562,
   61.7422,       542,
   61.7624,       569,
   61.7826,       586,
   61.8028,       543,
    61.823,       538,
   61.8432,       456,
   61.8635,       424,
   61.8837,       363,
   61.9039,       348,
   61.9241,       354,
   61.9443,       314,
   61.9646,       328,
   61.9848,       308,
    62.005,       327,
   62.0252,       349,
   62.0454,       307,
   62.0657,       307,
   62.0859,       385,
   62.1061,       327,
   62.1263,       355,
   62.1465,       361,
   62.1667,       381,
    62.187,       374,
   62.2072,       430,
   62.2274,       418,
   62.2476,       439,
   62.2678,       477,
   62.2881,       486,
   62.3083,       508,
   62.3285,       478,
   62.3487,       495,
   62.3689,       484,
   62.3892,       460,
   62.4094,       439,
   62.4296,       394,
   62.4498,       411,
     62.47,       407,
   62.4902,       409,
   62.5105,       342,
   62.5307,       376,
   62.5509,       355,
   62.5711,       332,
   62.5913,       310,
   62.6116,       315,
   62.6318,       312,
    62.652,       281,
   62.6722,       335,
   62.6924,       291,
   62.7127,       270,
   62.7329,       262,
   62.7531,       289,
   62.7733,       245,
   62.7935,       285,
   62.8137,       272,
    62.834,       224,
   62.8542,       236,
   62.8744,       281,
   62.8946,       256,
   62.9148,       269,
   62.9351,       243,
   62.9553,       256,
   62.9755,       225,
   62.9957,       295,
   63.0159,       238,
   63.0362,       234,
   63.0564,       244,
   63.0766,       225,
   63.0968,       249,
    63.117,       240,
   63.1372,       249,
   63.1575,       268,
   63.1777,       253,
   63.1979,       249,
   63.2181,       273,
   63.2383,       271,
   63.2586,       273,
   63.2788,       276,
    63.299,       277,
   63.3192,       249,
   63.3394,       254,
   63.3597,       279,
   63.3799,       284,
   63.4001,       299,
   63.4203,       345,
   63.4405,       305,
   63.4607,       326,
    63.481,       348,
   63.5012,       334,
   63.5214,       289,
   63.5416,       294,
   63.5618,       297,
   63.5821,       298,
   63.6023,       257,
   63.6225,       279,
   63.6427,       293,
   63.6629,       298,
   63.6832,       245,
   63.7034,       310,
   63.7236,       260,
   63.7438,       242,
    63.764,       251,
   63.7842,       259,
   63.8045,       258,
   63.8247,       241,
   63.8449,       229,
   63.8651,       266,
   63.8853,       247,
   63.9056,       242,
   63.9258,       256,
    63.946,       253,
   63.9662,       255,
   63.9864,       265,
   64.0067,       258,
   64.0269,       258,
   64.0471,       250,
   64.0673,       238,
   64.0875,       271,
   64.1077,       277,
    64.128,       235,
   64.1482,       250,
   64.1684,       250,
   64.1886,       269,
   64.2088,       242,
   64.2291,       266,
   64.2493,       252,
   64.2695,       225,
   64.2897,       209,
   64.3099,       228,
   64.3302,       237,
   64.3504,       221,
   64.3706,       231,
   64.3908,       241,
    64.411,       246,
   64.4312,       257,
   64.4515,       247,
   64.4717,       221,
   64.4919,       224,
   64.5121,       247,
   64.5323,       243,
   64.5526,       239,
   64.5728,       250,
    64.593,       240,
   64.6132,       260,
   64.6334,       265,
   64.6537,       257,
   64.6739,       223,
   64.6941,       253,
   64.7143,       271,
   64.7345,       238,
   64.7547,       242,
    64.775,       253,
   64.7952,       281,
   64.8154,       274,
   64.8356,       226,
   64.8558,       257,
   64.8761,       237,
   64.8963,       259,
   64.9165,       245,
   64.9367,       242,
   64.9569,       241,
   64.9772,       247,
   64.9974,       231,
   65.0176,       245,
   65.0378,       245,
    65.058,       233,
   65.0782,       246,
   65.0985,       268,
   65.1187,       228,
   65.1389,       266,
   65.1591,       256,
   65.1793,       248,
   65.1996,       247,
   65.2198,       249,
     65.24,       237,
   65.2602,       233,
   65.2804,       227,
   65.3007,       235,
   65.3209,       223,
   65.3411,       241,
   65.3613,       237,
   65.3815,       230,
   65.4017,       240,
    65.422,       239,
   65.4422,       234,
   65.4624,       257,
   65.4826,       242,
   65.5028,       257,
   65.5231,       241,
   65.5433,       244,
   65.5635,       249,
   65.5837,       242,
   65.6039,       251,
   65.6242,       239,
   65.6444,       233,
   65.6646,       248,
   65.6848,       247,
    65.705,       256,
   65.7252,       276,
   65.7455,       227,
   65.7657,       254,
   65.7859,       247,
   65.8061,       232,
   65.8263,       262,
   65.8466,       246,
   65.8668,       238,
    65.887,       249,
   65.9072,       249,
   65.9274,       249,
   65.9477,       233,
   65.9679,       251,
   65.9881,       254,
   66.0083,       236,
   66.0285,       253,
   66.0487,       280,
    66.069,       275,
   66.0892,       269,
   66.1094,       267,
   66.1296,       282,
   66.1498,       290,
   66.1701,       327,
   66.1903,       301,
   66.2105,       283,
   66.2307,       261,
   66.2509,       293,
   66.2712,       284,
   66.2914,       279,
   66.3116,       275,
   66.3318,       294,
    66.352,       320,
   66.3722,       277,
   66.3925,       303,
   66.4127,       324,
   66.4329,       316,
   66.4531,       317,
   66.4733,       348,
   66.4936,       373,
   66.5138,       434,
    66.534,       506,
   66.5542,       499,
   66.5744,       567,
   66.5947,       557,
   66.6149,       582,
   66.6351,       572,
   66.6553,       560,
   66.6755,       514,
   66.6957,       503,
    66.716,       536,
   66.7362,       508,
   66.7564,       493,
   66.7766,       471,
   66.7968,       473,
   66.8171,       411,
   66.8373,       429,
   66.8575,       383,
   66.8777,       379,
   66.8979,       303,
   66.9182,       302,
   66.9384,       316,
   66.9586,       338,
   66.9788,       342,
    66.999,       314,
   67.0192,       303,
   67.0395,       310,
   67.0597,       308,
   67.0799,       284,
   67.1001,       282,
   67.1203,       281,
   67.1406,       273,
   67.1608,       241,
    67.181,       278,
   67.2012,       268,
   67.2214,       266,
   67.2417,       265,
   67.2619,       246,
   67.2821,       298,
   67.3023,       289,
   67.3225,       267,
   67.3427,       252,
    67.363,       276,
   67.3832,       280,
   67.4034,       276,
   67.4236,       291,
   67.4438,       300,
   67.4641,       273,
   67.4843,       299,
   67.5045,       292,
   67.5247,       311,
   67.5449,       308,
   67.5652,       308,
   67.5854,       295,
   67.6056,       317,
   67.6258,       334,
    67.646,       307,
   67.6663,       344,
   67.6865,       294,
   67.7067,       344,
   67.7269,       328,
   67.7471,       328,
   67.7673,       358,
   67.7876,       327,
   67.8078,       355,
    67.828,       357,
   67.8482,       343,
   67.8684,       350,
   67.8887,       345,
   67.9089,       358,
   67.9291,       353,
   67.9493,       314,
   67.9695,       317,
   67.9898,       310,
     68.01,       286,
   68.0302,       325,
   68.0504,       287,
   68.0706,       304,
   68.0908,       306,
   68.1111,       277,
   68.1313,       291,
   68.1515,       294,
   68.1717,       313,
   68.1919,       278,
   68.2122,       311,
   68.2324,       290,
   68.2526,       307,
   68.2728,       309,
    68.293,       305,
   68.3133,       310,
   68.3335,       308,
   68.3537,       314,
   68.3739,       338,
   68.3941,       318,
   68.4143,       322,
   68.4346,       335,
   68.4548,       351,
    68.475,       392,
   68.4952,       362,
   68.5154,       382,
   68.5357,       409,
   68.5559,       401,
   68.5761,       421,
   68.5963,       448,
   68.6165,       455,
   68.6368,       426,
    68.657,       438,
   68.6772,       446,
   68.6974,       471,
   68.7176,       434,
   68.7378,       445,
   68.7581,       450,
   68.7783,       449,
   68.7985,       454,
   68.8187,       446,
   68.8389,       458,
   68.8592,       475,
   68.8794,       442,
   68.8996,       439,
   68.9198,       456,
     68.94,       448,
   68.9603,       396,
   68.9805,       421,
   69.0007,       417,
   69.0209,       386,
   69.0411,       417,
   69.0613,       406,
   69.0816,       384,
   69.1018,       347,
    69.122,       336,
   69.1422,       389,
   69.1624,       362,
   69.1827,       329,
   69.2029,       366,
   69.2231,       356,
   69.2433,       334,
   69.2635,       312,
   69.2838,       343,
    69.304,       342,
   69.3242,       306,
   69.3444,       282,
   69.3646,       333,
   69.3848,       332,
   69.4051,       315,
   69.4253,       316,
   69.4455,       312,
   69.4657,       302,
   69.4859,       277,
   69.5062,       295,
   69.5264,       327,
   69.5466,       291,
   69.5668,       271,
    69.587,       291,
   69.6073,       277,
   69.6275,       320,
   69.6477,       299,
   69.6679,       271,
   69.6881,       307,
   69.7083,       334,
   69.7286,       286,
   69.7488,       308,
    69.769,       289,
   69.7892,       323,
   69.8094,       283,
   69.8297,       302,
   69.8499,       292,
   69.8701,       314,
   69.8903,       363,
   69.9105,       340,
   69.9308,       333,
    69.951,       351,
   69.9712,       335,
   69.9914,       327,
   70.0116,       319,
   70.0318,       334,
   70.0521,       310,
