;RAW4.00
[RawHeader]
Date=10/22/2019
EstimatedTotalTime=1636.35
FurtherDQLReading=0
HardwareIndicator=65519
MeasuredTotalTime=1636.35
MeasurementFlag=1
NumberOfMeasuredRanges=1
NumberOfRanges=1
Time=16:45:29

[VarInfo]
Type=USER
Flags=0
Value=Bruker Service

[VarInfo]
Type=SAMPLEID
Flags=0
Value=Commander Sample ID

[VarInfo]
Type=COMMENT
Flags=0
Value=

[VarInfo]
Type=UTF
Flags=0
Value=

[VarInfo]
Type=CREATOR
Flags=0
Value=BrmlToV4Converter

[VarInfo]
Type=CREATOR_VERSION
Flags=0
Value=7.3.0.0

[HardwareConfiguration]
AbsorptionFactor=9999
ActivateAbsorber=0
Alpha1=1.78897
Alpha2=1.79285
AlphaAverage=1.79026
AlphaRatio=0.5
Analyzer=0
Anode=Co
AntiScatteringSlit=9999
BeamOpticsFlags=0
Beta=1.62079
BetaRelativeIntensity=0
DeactivateAbsorber=0
DetectorSlit=9999
DivergenceSlit=1
GoniometerControl=0
GoniometerDiameter=282
GoniometerModel=256
GoniometerStage=7
Monochromator=0
NearSampleSlit=9999
PrimarySollerSlit=9999
SampleChanger=0
SecondSollerSlit=9999
SynchronousAxis=0
ThinFilmAttachment=9999
WaveUnit=A

[RangeHeader]
ActuallyUsedLambda=1.79026
AdditionalDetectorMask=257
DataRecordLength=4
DelayTime=0
DisplayPlaneNumber=0
EstimatedScanTime=1636
ExtraParametersMask=0
GeneratorCurrent=10
GeneratorVoltage=30
Increment=0.0202188
Increment3=0
NumberOfCompletedData=2971
NumberOfCounts=1
NumberOfDetectors=0
NumberOfDrives=2
NumberOfEncoderDrives=0
NumberOfMeasuredData=2971
NumberOfVaryingParameters=0
RangeStartTime=0
RotationSpeed=1
ScanMode=1
ScanType=Locked Coupled
SimulatedMeasConditions=0
SlitChangerIn=0
SmootingWidth=0
Start=10.0023
Steps=2971
SynchronousRotation=0
Time=96

[VarInfo]
Type=PSD_DISCRIM
Flags=0
Value=0.11;0.25

[PSD]
ActualTwoTheta=9999
FirstUsedChannel=0
FixedPSD=0
PSDOpening=5.823
PSDType=5

[Drive]
DriveFlags=1
DriveName=2Theta
DriveNumber=2
DriveOffset=0
OffsetIndex=0
OscillationAmplitude=0
OscillationSpeed=0
StartPosition=10.0023

[Drive]
DriveFlags=1
DriveName=Theta
DriveNumber=1
DriveOffset=0
OffsetIndex=0
OscillationAmplitude=0
OscillationSpeed=0
StartPosition=5.00117

[Data]
     Angle,       PSD,
   10.0023,       877,
   10.0226,       845,
   10.0428,       896,
    10.063,       843,
   10.0832,       903,
   10.1034,       861,
   10.1237,       848,
   10.1439,       835,
   10.1641,       885,
   10.1843,       871,
   10.2045,       860,
   10.2247,       864,
    10.245,       797,
   10.2652,       898,
   10.2854,       817,
   10.3056,       858,
   10.3258,       820,
   10.3461,       825,
   10.3663,       864,
   10.3865,       812,
   10.4067,       888,
   10.4269,       871,
   10.4472,       868,
   10.4674,       841,
   10.4876,       845,
   10.5078,       784,
    10.528,       808,
   10.5482,       802,
   10.5685,       812,
   10.5887,       796,
   10.6089,       805,
   10.6291,       800,
   10.6493,       829,
   10.6696,       854,
   10.6898,       843,
     10.71,       834,
   10.7302,       818,
   10.7504,       790,
   10.7707,       790,
   10.7909,       789,
   10.8111,       787,
   10.8313,       830,
   10.8515,       830,
   10.8717,       802,
    10.892,       748,
   10.9122,       808,
   10.9324,       798,
   10.9526,       790,
   10.9728,       795,
   10.9931,       741,
   11.0133,       839,
   11.0335,       768,
   11.0537,       758,
   11.0739,       787,
   11.0942,       755,
   11.1144,       851,
   11.1346,       838,
   11.1548,       790,
    11.175,       796,
   11.1952,       846,
   11.2155,       758,
   11.2357,       839,
   11.2559,       805,
   11.2761,       812,
   11.2963,       811,
   11.3166,       837,
   11.3368,       785,
    11.357,       823,
   11.3772,       802,
   11.3974,       830,
   11.4177,       724,
   11.4379,       780,
   11.4581,       795,
   11.4783,       793,
   11.4985,       710,
   11.5187,       812,
    11.539,       794,
   11.5592,       793,
   11.5794,       785,
   11.5996,       754,
   11.6198,       789,
   11.6401,       802,
   11.6603,       740,
   11.6805,       798,
   11.7007,       780,
   11.7209,       810,
   11.7412,       790,
   11.7614,       793,
   11.7816,       803,
   11.8018,       772,
    11.822,       748,
   11.8422,       736,
   11.8625,       765,
   11.8827,       767,
   11.9029,       816,
   11.9231,       776,
   11.9433,       770,
   11.9636,       776,
   11.9838,       749,
    12.004,       782,
   12.0242,       850,
   12.0444,       781,
   12.0647,       850,
   12.0849,       792,
   12.1051,       804,
   12.1253,       803,
   12.1455,       769,
   12.1657,       773,
    12.186,       778,
   12.2062,       815,
   12.2264,       818,
   12.2466,       712,
   12.2668,       728,
   12.2871,       781,
   12.3073,       792,
   12.3275,       717,
   12.3477,       797,
   12.3679,       786,
   12.3882,       748,
   12.4084,       792,
   12.4286,       848,
   12.4488,       781,
    12.469,       748,
   12.4892,       756,
   12.5095,       751,
   12.5297,       742,
   12.5499,       755,
   12.5701,       757,
   12.5903,       726,
   12.6106,       730,
   12.6308,       746,
    12.651,       746,
   12.6712,       749,
   12.6914,       801,
   12.7117,       749,
   12.7319,       795,
   12.7521,       736,
   12.7723,       797,
   12.7925,       725,
   12.8127,       708,
    12.833,       800,
   12.8532,       802,
   12.8734,       716,
   12.8936,       775,
   12.9138,       789,
   12.9341,       764,
   12.9543,       780,
   12.9745,       746,
   12.9947,       754,
   13.0149,       752,
   13.0352,       756,
   13.0554,       765,
   13.0756,       788,
   13.0958,       747,
    13.116,       746,
   13.1362,       724,
   13.1565,       749,
   13.1767,       721,
   13.1969,       807,
   13.2171,       718,
   13.2373,       720,
   13.2576,       762,
   13.2778,       783,
    13.298,       780,
   13.3182,       793,
   13.3384,       692,
   13.3587,       710,
   13.3789,       735,
   13.3991,       766,
   13.4193,       728,
   13.4395,       792,
   13.4597,       721,
     13.48,       746,
   13.5002,       762,
   13.5204,       718,
   13.5406,       787,
   13.5608,       728,
   13.5811,       738,
   13.6013,       698,
   13.6215,       768,
   13.6417,       736,
   13.6619,       748,
   13.6822,       738,
   13.7024,       733,
   13.7226,       802,
   13.7428,       787,
    13.763,       766,
   13.7832,       764,
   13.8035,       715,
   13.8237,       723,
   13.8439,       706,
   13.8641,       723,
   13.8843,       732,
   13.9046,       790,
   13.9248,       764,
    13.945,       779,
   13.9652,       723,
   13.9854,       750,
   14.0057,       676,
   14.0259,       737,
   14.0461,       770,
   14.0663,       742,
   14.0865,       710,
   14.1068,       756,
    14.127,       751,
   14.1472,       804,
   14.1674,       764,
   14.1876,       705,
   14.2078,       731,
   14.2281,       682,
   14.2483,       713,
   14.2685,       782,
   14.2887,       757,
   14.3089,       769,
   14.3292,       746,
   14.3494,       762,
   14.3696,       764,
   14.3898,       745,
     14.41,       739,
   14.4303,       697,
   14.4505,       758,
   14.4707,       675,
   14.4909,       691,
   14.5111,       702,
   14.5313,       763,
   14.5516,       735,
   14.5718,       681,
    14.592,       702,
   14.6122,       651,
   14.6324,       712,
   14.6527,       698,
   14.6729,       686,
   14.6931,       728,
   14.7133,       724,
   14.7335,       764,
   14.7538,       664,
    14.774,       679,
   14.7942,       672,
   14.8144,       753,
   14.8346,       724,
   14.8548,       669,
   14.8751,       680,
   14.8953,       708,
   14.9155,       711,
   14.9357,       656,
   14.9559,       728,
   14.9762,       689,
   14.9964,       676,
   15.0166,       697,
   15.0368,       738,
    15.057,       748,
   15.0773,       711,
   15.0975,       639,
   15.1177,       712,
   15.1379,       728,
   15.1581,       750,
   15.1783,       720,
   15.1986,       694,
   15.2188,       713,
    15.239,       699,
   15.2592,       707,
   15.2794,       668,
   15.2997,       707,
   15.3199,       616,
   15.3401,       694,
   15.3603,       753,
   15.3805,       687,
   15.4008,       694,
    15.421,       733,
   15.4412,       676,
   15.4614,       662,
   15.4816,       682,
   15.5018,       675,
   15.5221,       655,
   15.5423,       680,
   15.5625,       707,
   15.5827,       678,
   15.6029,       677,
   15.6232,       705,
   15.6434,       657,
   15.6636,       671,
   15.6838,       689,
    15.704,       635,
   15.7243,       678,
   15.7445,       683,
   15.7647,       670,
   15.7849,       697,
   15.8051,       653,
   15.8253,       668,
   15.8456,       685,
   15.8658,       691,
    15.886,       665,
   15.9062,       671,
   15.9264,       676,
   15.9467,       679,
   15.9669,       618,
   15.9871,       688,
   16.0073,       689,
   16.0275,       664,
   16.0478,       688,
    16.068,       672,
   16.0882,       627,
   16.1084,       623,
   16.1286,       631,
   16.1488,       672,
   16.1691,       631,
   16.1893,       667,
   16.2095,       646,
   16.2297,       652,
   16.2499,       673,
   16.2702,       666,
   16.2904,       676,
   16.3106,       645,
   16.3308,       691,
    16.351,       662,
   16.3713,       702,
   16.3915,       655,
   16.4117,       651,
   16.4319,       676,
   16.4521,       652,
   16.4723,       670,
   16.4926,       666,
   16.5128,       629,
    16.533,       671,
   16.5532,       647,
   16.5734,       628,
   16.5937,       661,
   16.6139,       654,
   16.6341,       663,
   16.6543,       706,
   16.6745,       665,
   16.6948,       651,
    16.715,       699,
   16.7352,       660,
   16.7554,       743,
   16.7756,       689,
   16.7958,       682,
   16.8161,       644,
   16.8363,       642,
   16.8565,       690,
   16.8767,       706,
   16.8969,       661,
   16.9172,       675,
   16.9374,       650,
   16.9576,       700,
   16.9778,       669,
    16.998,       688,
   17.0183,       655,
   17.0385,       680,
   17.0587,       647,
   17.0789,       742,
   17.0991,       685,
   17.1193,       657,
   17.1396,       700,
   17.1598,       721,
     17.18,       753,
   17.2002,       746,
   17.2204,       748,
   17.2407,       738,
   17.2609,       774,
   17.2811,       827,
   17.3013,       805,
   17.3215,       833,
   17.3418,       820,
    17.362,       726,
   17.3822,       745,
   17.4024,       725,
   17.4226,       727,
   17.4428,       693,
   17.4631,       663,
   17.4833,       627,
   17.5035,       716,
   17.5237,       630,
   17.5439,       667,
   17.5642,       647,
   17.5844,       672,
   17.6046,       657,
   17.6248,       649,
    17.645,       636,
   17.6653,       667,
   17.6855,       673,
   17.7057,       664,
   17.7259,       624,
   17.7461,       602,
   17.7663,       686,
   17.7866,       612,
   17.8068,       673,
    17.827,       626,
   17.8472,       673,
   17.8674,       643,
   17.8877,       626,
   17.9079,       648,
   17.9281,       631,
   17.9483,       689,
   17.9685,       664,
   17.9888,       624,
    18.009,       638,
   18.0292,       589,
   18.0494,       638,
   18.0696,       667,
   18.0898,       597,
   18.1101,       611,
   18.1303,       630,
   18.1505,       606,
   18.1707,       651,
   18.1909,       629,
   18.2112,       653,
   18.2314,       616,
   18.2516,       663,
   18.2718,       671,
    18.292,       601,
   18.3123,       617,
   18.3325,       637,
   18.3527,       648,
   18.3729,       639,
   18.3931,       621,
   18.4133,       617,
   18.4336,       630,
   18.4538,       611,
    18.474,       680,
   18.4942,       625,
   18.5144,       665,
   18.5347,       628,
   18.5549,       601,
   18.5751,       707,
   18.5953,       661,
   18.6155,       616,
   18.6358,       610,
    18.656,       580,
   18.6762,       634,
   18.6964,       621,
   18.7166,       632,
   18.7368,       639,
   18.7571,       646,
   18.7773,       584,
   18.7975,       662,
   18.8177,       616,
   18.8379,       611,
   18.8582,       618,
   18.8784,       633,
   18.8986,       592,
   18.9188,       646,
    18.939,       618,
   18.9593,       598,
   18.9795,       642,
   18.9997,       629,
   19.0199,       649,
   19.0401,       629,
   19.0603,       621,
   19.0806,       575,
   19.1008,       623,
    19.121,       663,
   19.1412,       625,
   19.1614,       645,
   19.1817,       617,
   19.2019,       581,
   19.2221,       620,
   19.2423,       628,
   19.2625,       645,
   19.2828,       604,
    19.303,       608,
   19.3232,       586,
   19.3434,       589,
   19.3636,       585,
   19.3838,       642,
   19.4041,       626,
   19.4243,       615,
   19.4445,       650,
   19.4647,       608,
   19.4849,       595,
   19.5052,       645,
   19.5254,       589,
   19.5456,       636,
   19.5658,       637,
    19.586,       613,
   19.6063,       603,
   19.6265,       561,
   19.6467,       649,
   19.6669,       601,
   19.6871,       636,
   19.7073,       575,
   19.7276,       596,
   19.7478,       612,
    19.768,       540,
   19.7882,       591,
   19.8084,       577,
   19.8287,       588,
   19.8489,       608,
   19.8691,       590,
   19.8893,       610,
   19.9095,       609,
   19.9298,       590,
     19.95,       603,
   19.9702,       584,
   19.9904,       610,
   20.0106,       595,
   20.0308,       610,
   20.0511,       603,
   20.0713,       647,
   20.0915,       603,
   20.1117,       618,
   20.1319,       630,
   20.1522,       650,
   20.1724,       632,
   20.1926,       637,
   20.2128,       637,
    20.233,       658,
   20.2533,       630,
   20.2735,       621,
   20.2937,       610,
   20.3139,       598,
   20.3341,       629,
   20.3543,       628,
   20.3746,       571,
   20.3948,       573,
    20.415,       620,
   20.4352,       642,
   20.4554,       573,
   20.4757,       645,
   20.4959,       573,
   20.5161,       602,
   20.5363,       611,
   20.5565,       601,
   20.5768,       608,
    20.597,       636,
   20.6172,       610,
   20.6374,       605,
   20.6576,       600,
   20.6778,       592,
   20.6981,       641,
   20.7183,       627,
   20.7385,       614,
   20.7587,       582,
   20.7789,       549,
   20.7992,       592,
   20.8194,       625,
   20.8396,       626,
   20.8598,       635,
     20.88,       622,
   20.9003,       608,
   20.9205,       563,
   20.9407,       583,
   20.9609,       614,
   20.9811,       658,
   21.0013,       593,
   21.0216,       680,
   21.0418,       612,
    21.062,       610,
   21.0822,       629,
   21.1024,       621,
   21.1227,       602,
   21.1429,       601,
   21.1631,       648,
   21.1833,       622,
   21.2035,       649,
   21.2238,       599,
    21.244,       591,
   21.2642,       649,
   21.2844,       562,
   21.3046,       643,
   21.3248,       640,
   21.3451,       601,
   21.3653,       618,
   21.3855,       611,
   21.4057,       605,
   21.4259,       625,
   21.4462,       665,
   21.4664,       630,
   21.4866,       601,
   21.5068,       638,
    21.527,       613,
   21.5473,       678,
   21.5675,       654,
   21.5877,       654,
   21.6079,       627,
   21.6281,       643,
   21.6483,       598,
   21.6686,       608,
   21.6888,       597,
    21.709,       618,
   21.7292,       648,
   21.7494,       597,
   21.7697,       644,
   21.7899,       610,
   21.8101,       639,
   21.8303,       578,
   21.8505,       587,
   21.8708,       607,
    21.891,       602,
   21.9112,       627,
   21.9314,       662,
   21.9516,       592,
   21.9718,       643,
   21.9921,       603,
   22.0123,       621,
   22.0325,       625,
   22.0527,       549,
   22.0729,       595,
   22.0932,       588,
   22.1134,       637,
   22.1336,       594,
   22.1538,       608,
    22.174,       622,
   22.1943,       617,
   22.2145,       641,
   22.2347,       607,
   22.2549,       628,
   22.2751,       696,
   22.2953,       652,
   22.3156,       615,
   22.3358,       655,
    22.356,       615,
   22.3762,       644,
   22.3964,       677,
   22.4167,       645,
   22.4369,       606,
   22.4571,       607,
   22.4773,       659,
   22.4975,       582,
   22.5178,       634,
    22.538,       652,
   22.5582,       669,
   22.5784,       634,
   22.5986,       643,
   22.6188,       652,
   22.6391,       633,
   22.6593,       640,
   22.6795,       663,
   22.6997,       609,
   22.7199,       639,
   22.7402,       639,
   22.7604,       620,
   22.7806,       622,
   22.8008,       680,
    22.821,       649,
   22.8413,       633,
   22.8615,       648,
   22.8817,       624,
   22.9019,       624,
   22.9221,       657,
   22.9423,       636,
   22.9626,       649,
   22.9828,       648,
    23.003,       593,
   23.0232,       675,
   23.0434,       644,
   23.0637,       631,
   23.0839,       639,
   23.1041,       584,
   23.1243,       653,
   23.1445,       614,
   23.1648,       661,
    23.185,       667,
   23.2052,       653,
   23.2254,       626,
   23.2456,       669,
   23.2658,       655,
   23.2861,       621,
   23.3063,       668,
   23.3265,       613,
   23.3467,       650,
   23.3669,       651,
   23.3872,       691,
   23.4074,       651,
   23.4276,       651,
   23.4478,       657,
    23.468,       686,
   23.4883,       652,
   23.5085,       676,
   23.5287,       644,
   23.5489,       641,
   23.5691,       632,
   23.5893,       700,
   23.6096,       687,
   23.6298,       713,
     23.65,       646,
   23.6702,       614,
   23.6904,       656,
   23.7107,       638,
   23.7309,       625,
   23.7511,       622,
   23.7713,       663,
   23.7915,       632,
   23.8118,       597,
    23.832,       641,
   23.8522,       599,
   23.8724,       661,
   23.8926,       675,
   23.9128,       628,
   23.9331,       636,
   23.9533,       633,
   23.9735,       654,
   23.9937,       652,
   24.0139,       617,
   24.0342,       605,
   24.0544,       595,
   24.0746,       662,
   24.0948,       658,
    24.115,       606,
   24.1353,       614,
   24.1555,       639,
   24.1757,       617,
   24.1959,       643,
   24.2161,       643,
   24.2363,       652,
   24.2566,       587,
   24.2768,       606,
    24.297,       594,
   24.3172,       611,
   24.3374,       659,
   24.3577,       608,
   24.3779,       635,
   24.3981,       589,
   24.4183,       604,
   24.4385,       523,
   24.4588,       628,
    24.479,       639,
   24.4992,       625,
   24.5194,       636,
   24.5396,       591,
   24.5599,       606,
   24.5801,       686,
   24.6003,       613,
   24.6205,       651,
   24.6407,       633,
   24.6609,       637,
   24.6812,       624,
   24.7014,       638,
   24.7216,       655,
   24.7418,       633,
    24.762,       648,
   24.7823,       600,
   24.8025,       616,
   24.8227,       607,
   24.8429,       629,
   24.8631,       636,
   24.8834,       615,
   24.9036,       606,
   24.9238,       606,
    24.944,       624,
   24.9642,       569,
   24.9844,       632,
   25.0047,       612,
   25.0249,       637,
   25.0451,       632,
   25.0653,       676,
   25.0855,       554,
   25.1058,       604,
    25.126,       603,
   25.1462,       640,
   25.1664,       587,
   25.1866,       624,
   25.2069,       576,
   25.2271,       648,
   25.2473,       622,
   25.2675,       683,
   25.2877,       599,
   25.3079,       631,
   25.3282,       650,
   25.3484,       605,
   25.3686,       615,
   25.3888,       693,
    25.409,       609,
   25.4293,       616,
   25.4495,       649,
   25.4697,       659,
   25.4899,       681,
   25.5101,       649,
   25.5304,       622,
   25.5506,       617,
   25.5708,       609,
    25.591,       634,
   25.6112,       649,
   25.6314,       664,
   25.6517,       621,
   25.6719,       695,
   25.6921,       596,
   25.7123,       676,
   25.7325,       681,
   25.7528,       683,
    25.773,       642,
   25.7932,       608,
   25.8134,       645,
   25.8336,       669,
   25.8539,       623,
   25.8741,       653,
   25.8943,       628,
   25.9145,       621,
   25.9347,       590,
   25.9549,       624,
   25.9752,       633,
   25.9954,       651,
   26.0156,       610,
   26.0358,       644,
    26.056,       608,
   26.0763,       648,
   26.0965,       582,
   26.1167,       598,
   26.1369,       641,
   26.1571,       646,
   26.1774,       578,
   26.1976,       601,
   26.2178,       586,
    26.238,       585,
   26.2582,       581,
   26.2784,       586,
   26.2987,       604,
   26.3189,       577,
   26.3391,       573,
   26.3593,       594,
   26.3795,       604,
   26.3998,       626,
     26.42,       587,
   26.4402,       621,
   26.4604,       631,
   26.4806,       599,
   26.5009,       624,
   26.5211,       590,
   26.5413,       554,
   26.5615,       602,
   26.5817,       591,
   26.6019,       612,
   26.6222,       573,
   26.6424,       623,
   26.6626,       596,
   26.6828,       577,
    26.703,       558,
   26.7233,       555,
   26.7435,       545,
   26.7637,       598,
   26.7839,       579,
   26.8041,       621,
   26.8244,       554,
   26.8446,       586,
   26.8648,       624,
    26.885,       576,
   26.9052,       620,
   26.9254,       617,
   26.9457,       600,
   26.9659,       593,
   26.9861,       591,
   27.0063,       642,
   27.0265,       622,
   27.0468,       627,
    27.067,       661,
   27.0872,       641,
   27.1074,       640,
   27.1276,       623,
   27.1479,       633,
   27.1681,       677,
   27.1883,       745,
   27.2085,       811,
   27.2287,       759,
   27.2489,       848,
   27.2692,       875,
   27.2894,       880,
   27.3096,       960,
   27.3298,       990,
     27.35,       999,
   27.3703,       992,
   27.3905,       977,
   27.4107,      1011,
   27.4309,       955,
   27.4511,       931,
   27.4714,       842,
   27.4916,       810,
   27.5118,       831,
    27.532,       765,
   27.5522,       754,
   27.5724,       734,
   27.5927,       733,
   27.6129,       694,
   27.6331,       686,
   27.6533,       702,
   27.6735,       628,
   27.6938,       641,
    27.714,       676,
   27.7342,       650,
   27.7544,       667,
   27.7746,       680,
   27.7949,       686,
   27.8151,       612,
   27.8353,       597,
   27.8555,       581,
   27.8757,       593,
   27.8959,       596,
   27.9162,       579,
   27.9364,       624,
   27.9566,       596,
   27.9768,       561,
    27.997,       608,
   28.0173,       592,
   28.0375,       561,
   28.0577,       591,
   28.0779,       547,
   28.0981,       535,
   28.1184,       540,
   28.1386,       607,
   28.1588,       536,
    28.179,       555,
   28.1992,       551,
   28.2194,       535,
   28.2397,       558,
   28.2599,       559,
   28.2801,       577,
   28.3003,       592,
   28.3205,       552,
   28.3408,       576,
    28.361,       539,
   28.3812,       601,
   28.4014,       594,
   28.4216,       551,
   28.4419,       537,
   28.4621,       566,
   28.4823,       523,
   28.5025,       551,
   28.5227,       565,
   28.5429,       546,
   28.5632,       549,
   28.5834,       576,
   28.6036,       558,
   28.6238,       592,
    28.644,       571,
   28.6643,       556,
   28.6845,       592,
   28.7047,       548,
   28.7249,       542,
   28.7451,       566,
   28.7654,       525,
   28.7856,       590,
   28.8058,       586,
    28.826,       601,
   28.8462,       549,
   28.8664,       547,
   28.8867,       524,
   28.9069,       545,
   28.9271,       594,
   28.9473,       578,
   28.9675,       578,
   28.9878,       563,
    29.008,       533,
   29.0282,       558,
   29.0484,       551,
   29.0686,       540,
   29.0889,       569,
   29.1091,       557,
   29.1293,       550,
   29.1495,       567,
   29.1697,       532,
   29.1899,       549,
   29.2102,       535,
   29.2304,       539,
   29.2506,       546,
   29.2708,       525,
    29.291,       562,
   29.3113,       512,
   29.3315,       531,
   29.3517,       572,
   29.3719,       546,
   29.3921,       524,
   29.4124,       546,
   29.4326,       511,
   29.4528,       539,
    29.473,       499,
   29.4932,       511,
   29.5134,       540,
   29.5337,       534,
   29.5539,       585,
   29.5741,       581,
   29.5943,       548,
   29.6145,       604,
   29.6348,       528,
    29.655,       539,
   29.6752,       539,
   29.6954,       555,
   29.7156,       522,
   29.7359,       527,
   29.7561,       549,
   29.7763,       590,
   29.7965,       548,
   29.8167,       581,
   29.8369,       546,
   29.8572,       574,
   29.8774,       546,
   29.8976,       548,
   29.9178,       607,
    29.938,       539,
   29.9583,       639,
   29.9785,       593,
   29.9987,       628,
   30.0189,       619,
   30.0391,       635,
   30.0594,       625,
   30.0796,       659,
   30.0998,       595,
     30.12,       596,
   30.1402,       576,
   30.1604,       586,
   30.1807,       636,
   30.2009,       644,
   30.2211,       659,
   30.2413,       587,
   30.2615,       586,
   30.2818,       641,
    30.302,       565,
   30.3222,       614,
   30.3424,       590,
   30.3626,       612,
   30.3829,       632,
   30.4031,       637,
   30.4233,       686,
   30.4435,       681,
   30.4637,       714,
   30.4839,       741,
   30.5042,       775,
   30.5244,       736,
   30.5446,       863,
   30.5648,       936,
    30.585,      1103,
   30.6053,      1237,
   30.6255,      1396,
   30.6457,      1796,
   30.6659,      1838,
   30.6861,      1981,
   30.7064,      1942,
   30.7266,      1794,
   30.7468,      1670,
    30.767,      1494,
   30.7872,      1301,
   30.8074,      1111,
   30.8277,      1007,
   30.8479,       875,
   30.8681,       778,
   30.8883,       765,
   30.9085,       692,
   30.9288,       679,
    30.949,       694,
   30.9692,       654,
   30.9894,       649,
   31.0096,       626,
   31.0299,       633,
   31.0501,       611,
   31.0703,       581,
   31.0905,       623,
   31.1107,       618,
   31.1309,       593,
   31.1512,       560,
   31.1714,       601,
   31.1916,       593,
   31.2118,       605,
    31.232,       599,
   31.2523,       612,
   31.2725,       584,
   31.2927,       590,
   31.3129,       589,
   31.3331,       568,
   31.3534,       622,
   31.3736,       576,
   31.3938,       591,
    31.414,       629,
   31.4342,       646,
   31.4544,       623,
   31.4747,       661,
   31.4949,       647,
   31.5151,       681,
   31.5353,       681,
   31.5555,       672,
   31.5758,       661,
    31.596,       697,
   31.6162,       716,
   31.6364,       728,
   31.6566,       747,
   31.6769,       753,
   31.6971,       733,
   31.7173,       733,
   31.7375,       903,
   31.7577,       875,
   31.7779,       975,
   31.7982,      1052,
   31.8184,      1101,
   31.8386,      1256,
   31.8588,      1259,
    31.879,      1231,
   31.8993,      1176,
   31.9195,      1150,
   31.9397,      1013,
   31.9599,      1020,
   31.9801,       940,
   32.0004,      1061,
   32.0206,      1186,
   32.0408,      1202,
    32.061,      1161,
   32.0812,      1094,
   32.1014,      1101,
   32.1217,       963,
   32.1419,       900,
   32.1621,       815,
   32.1823,       702,
   32.2025,       650,
   32.2228,       606,
    32.243,       590,
   32.2632,       581,
   32.2834,       540,
   32.3036,       561,
   32.3239,       525,
   32.3441,       545,
   32.3643,       535,
   32.3845,       449,
   32.4047,       554,
   32.4249,       504,
   32.4452,       551,
   32.4654,       514,
   32.4856,       498,
   32.5058,       524,
    32.526,       493,
   32.5463,       469,
   32.5665,       483,
   32.5867,       483,
   32.6069,       486,
   32.6271,       511,
   32.6474,       510,
   32.6676,       462,
   32.6878,       475,
    32.708,       514,
   32.7282,       475,
   32.7484,       464,
   32.7687,       516,
   32.7889,       446,
   32.8091,       462,
   32.8293,       472,
   32.8495,       458,
   32.8698,       450,
     32.89,       494,
   32.9102,       522,
   32.9304,       507,
   32.9506,       500,
   32.9709,       487,
   32.9911,       479,
   33.0113,       486,
   33.0315,       484,
   33.0517,       487,
   33.0719,       522,
   33.0922,       462,
   33.1124,       474,
   33.1326,       466,
   33.1528,       494,
    33.173,       476,
   33.1933,       494,
   33.2135,       498,
   33.2337,       483,
   33.2539,       485,
   33.2741,       470,
   33.2944,       473,
   33.3146,       508,
   33.3348,       488,
    33.355,       518,
   33.3752,       500,
   33.3954,       518,
   33.4157,       497,
   33.4359,       531,
   33.4561,       542,
   33.4763,       519,
   33.4965,       533,
   33.5168,       559,
    33.537,       651,
   33.5572,       656,
   33.5774,       703,
   33.5976,       656,
   33.6179,       623,
   33.6381,       541,
   33.6583,       542,
   33.6785,       526,
   33.6987,       472,
   33.7189,       488,
   33.7392,       492,
   33.7594,       525,
   33.7796,       499,
   33.7998,       512,
     33.82,       520,
   33.8403,       522,
   33.8605,       501,
   33.8807,       490,
   33.9009,       490,
   33.9211,       478,
   33.9414,       527,
   33.9616,       483,
   33.9818,       559,
    34.002,       519,
   34.0222,       512,
   34.0424,       516,
   34.0627,       487,
   34.0829,       499,
   34.1031,       493,
   34.1233,       519,
   34.1435,       566,
   34.1638,       548,
    34.184,       549,
   34.2042,       571,
   34.2244,       527,
   34.2446,       607,
   34.2649,       577,
   34.2851,       554,
   34.3053,       590,
   34.3255,       621,
   34.3457,       648,
   34.3659,       648,
   34.3862,       679,
   34.4064,       717,
   34.4266,       715,
   34.4468,       760,
    34.467,       717,
   34.4873,       756,
   34.5075,       832,
   34.5277,       850,
   34.5479,       895,
   34.5681,       970,
   34.5884,      1054,
   34.6086,      1088,
   34.6288,      1293,
    34.649,      1439,
   34.6692,      1612,
   34.6894,      1852,
   34.7097,      2055,
   34.7299,      2324,
   34.7501,      2644,
   34.7703,      2960,
   34.7905,      3253,
   34.8108,      3531,
    34.831,      3781,
   34.8512,      4141,
   34.8714,      4442,
   34.8916,      4611,
   34.9119,      4621,
   34.9321,      4543,
   34.9523,      4587,
   34.9725,      4462,
   34.9927,      4355,
   35.0129,      4125,
   35.0332,      3963,
   35.0534,      3746,
   35.0736,      3388,
   35.0938,      3218,
    35.114,      2955,
   35.1343,      2734,
   35.1545,      2464,
   35.1747,      2274,
   35.1949,      2006,
   35.2151,      2008,
   35.2354,      1775,
   35.2556,      1764,
   35.2758,      1528,
    35.296,      1433,
   35.3162,      1344,
   35.3365,      1230,
   35.3567,      1223,
   35.3769,      1140,
   35.3971,      1094,
   35.4173,      1042,
   35.4375,       972,
   35.4578,      1033,
    35.478,       948,
   35.4982,       888,
   35.5184,       927,
   35.5386,       924,
   35.5589,       836,
   35.5791,       792,
   35.5993,       809,
   35.6195,       846,
   35.6397,       818,
     35.66,       797,
   35.6802,       785,
   35.7004,       793,
   35.7206,       771,
   35.7408,       738,
    35.761,       746,
   35.7813,       747,
   35.8015,       759,
   35.8217,       671,
   35.8419,       724,
   35.8621,       665,
   35.8824,       651,
   35.9026,       694,
   35.9228,       668,
    35.943,       643,
   35.9632,       650,
   35.9835,       680,
   36.0037,       647,
   36.0239,       629,
   36.0441,       632,
   36.0643,       628,
   36.0845,       602,
   36.1048,       578,
    36.125,       592,
   36.1452,       588,
   36.1654,       566,
   36.1856,       603,
   36.2059,       607,
   36.2261,       566,
   36.2463,       558,
   36.2665,       541,
   36.2867,       566,
    36.307,       575,
   36.3272,       596,
   36.3474,       554,
   36.3676,       596,
   36.3878,       668,
    36.408,       629,
   36.4283,       635,
   36.4485,       587,
   36.4687,       575,
   36.4889,       562,
   36.5091,       563,
   36.5294,       616,
   36.5496,       591,
   36.5698,       525,
     36.59,       531,
   36.6102,       549,
   36.6305,       578,
   36.6507,       557,
   36.6709,       555,
   36.6911,       567,
   36.7113,       608,
   36.7315,       598,
   36.7518,       642,
    36.772,       642,
   36.7922,       612,
   36.8124,       648,
   36.8326,       737,
   36.8529,       699,
   36.8731,       726,
   36.8933,       746,
   36.9135,       783,
   36.9337,       859,
    36.954,       912,
   36.9742,      1022,
   36.9944,      1178,
   37.0146,      1429,
   37.0348,      1706,
    37.055,      2214,
   37.0753,      3212,
   37.0955,      4539,
   37.1157,      6428,
   37.1359,      8597,
   37.1561,      9632,
   37.1764,      9484,
   37.1966,      8340,
   37.2168,      7217,
    37.237,      6497,
   37.2572,      5339,
   37.2775,      3886,
   37.2977,      2825,
   37.3179,      2011,
   37.3381,      1490,
   37.3583,      1246,
   37.3785,      1124,
   37.3988,       998,
    37.419,       907,
   37.4392,       864,
   37.4594,       794,
   37.4796,       739,
   37.4999,       737,
   37.5201,       765,
   37.5403,       674,
   37.5605,       670,
   37.5807,       639,
    37.601,       578,
   37.6212,       566,
   37.6414,       591,
   37.6616,       562,
   37.6818,       581,
    37.702,       577,
   37.7223,       558,
   37.7425,       509,
   37.7627,       529,
   37.7829,       534,
   37.8031,       515,
   37.8234,       511,
   37.8436,       529,
   37.8638,       507,
    37.884,       558,
   37.9042,       499,
   37.9245,       470,
   37.9447,       467,
   37.9649,       487,
   37.9851,       525,
   38.0053,       469,
   38.0255,       457,
   38.0458,       520,
    38.066,       485,
   38.0862,       474,
   38.1064,       489,
   38.1266,       495,
   38.1469,       501,
   38.1671,       522,
   38.1873,       514,
   38.2075,       521,
   38.2277,       535,
    38.248,       540,
   38.2682,       547,
   38.2884,       586,
   38.3086,       552,
   38.3288,       565,
    38.349,       572,
   38.3693,       594,
   38.3895,       591,
   38.4097,       636,
   38.4299,       596,
   38.4501,       562,
   38.4704,       611,
   38.4906,       596,
   38.5108,       569,
    38.531,       580,
   38.5512,       603,
   38.5715,       595,
   38.5917,       628,
   38.6119,       665,
   38.6321,       633,
   38.6523,       667,
   38.6725,       741,
   38.6928,       853,
    38.713,      1007,
   38.7332,      1061,
   38.7534,      1162,
   38.7736,      1300,
   38.7939,      1268,
   38.8141,      1239,
   38.8343,      1125,
   38.8545,      1069,
   38.8747,       984,
    38.895,       889,
   38.9152,       819,
   38.9354,       697,
   38.9556,       682,
   38.9758,       600,
    38.996,       595,
   39.0163,       586,
   39.0365,       521,
   39.0567,       495,
   39.0769,       459,
   39.0971,       523,
   39.1174,       475,
   39.1376,       469,
   39.1578,       452,
    39.178,       441,
   39.1982,       460,
   39.2185,       466,
   39.2387,       450,
   39.2589,       445,
   39.2791,       475,
   39.2993,       408,
   39.3195,       439,
   39.3398,       452,
     39.36,       459,
   39.3802,       417,
   39.4004,       431,
   39.4206,       451,
   39.4409,       460,
   39.4611,       434,
   39.4813,       456,
   39.5015,       425,
   39.5217,       418,
    39.542,       433,
   39.5622,       418,
   39.5824,       415,
   39.6026,       424,
   39.6228,       428,
    39.643,       427,
   39.6633,       443,
   39.6835,       439,
   39.7037,       420,
   39.7239,       402,
   39.7441,       402,
   39.7644,       417,
   39.7846,       429,
   39.8048,       424,
    39.825,       433,
   39.8452,       425,
   39.8655,       433,
   39.8857,       410,
   39.9059,       491,
   39.9261,       405,
   39.9463,       401,
   39.9665,       424,
   39.9868,       415,
    40.007,       409,
   40.0272,       416,
   40.0474,       447,
   40.0676,       448,
   40.0879,       438,
   40.1081,       453,
   40.1283,       417,
   40.1485,       414,
   40.1687,       426,
    40.189,       446,
   40.2092,       431,
   40.2294,       457,
   40.2496,       420,
   40.2698,       398,
     40.29,       406,
   40.3103,       458,
   40.3305,       415,
   40.3507,       442,
   40.3709,       458,
   40.3911,       425,
   40.4114,       439,
   40.4316,       459,
   40.4518,       426,
    40.472,       419,
   40.4922,       438,
   40.5125,       429,
   40.5327,       432,
   40.5529,       409,
   40.5731,       447,
   40.5933,       474,
   40.6135,       430,
   40.6338,       469,
    40.654,       439,
   40.6742,       424,
   40.6944,       446,
   40.7146,       424,
   40.7349,       434,
   40.7551,       424,
   40.7753,       433,
   40.7955,       461,
   40.8157,       474,
    40.836,       417,
   40.8562,       449,
   40.8764,       475,
   40.8966,       448,
   40.9168,       445,
    40.937,       450,
   40.9573,       450,
   40.9775,       401,
   40.9977,       427,
   41.0179,       446,
   41.0381,       415,
   41.0584,       452,
   41.0786,       439,
   41.0988,       431,
    41.119,       444,
   41.1392,       429,
   41.1595,       441,
   41.1797,       405,
   41.1999,       414,
   41.2201,       432,
   41.2403,       462,
   41.2605,       462,
   41.2808,       447,
    41.301,       434,
   41.3212,       412,
   41.3414,       412,
   41.3616,       447,
   41.3819,       437,
   41.4021,       424,
   41.4223,       418,
   41.4425,       442,
   41.4627,       439,
    41.483,       438,
   41.5032,       431,
   41.5234,       397,
   41.5436,       458,
   41.5638,       416,
    41.584,       410,
   41.6043,       426,
   41.6245,       445,
   41.6447,       434,
   41.6649,       440,
   41.6851,       429,
   41.7054,       404,
   41.7256,       437,
   41.7458,       421,
    41.766,       425,
   41.7862,       424,
   41.8065,       418,
   41.8267,       433,
   41.8469,       439,
   41.8671,       475,
   41.8873,       438,
   41.9075,       458,
   41.9278,       434,
    41.948,       481,
   41.9682,       458,
   41.9884,       492,
   42.0086,       474,
   42.0289,       502,
   42.0491,       479,
   42.0693,       505,
   42.0895,       538,
   42.1097,       562,
     42.13,       535,
   42.1502,       531,
   42.1704,       623,
   42.1906,       629,
   42.2108,       683,
    42.231,       746,
   42.2513,       830,
   42.2715,       862,
   42.2917,       919,
   42.3119,       901,
   42.3321,       924,
   42.3524,       925,
   42.3726,       917,
   42.3928,       936,
    42.413,       896,
   42.4332,       863,
   42.4535,       854,
   42.4737,       822,
   42.4939,       771,
   42.5141,       802,
   42.5343,       801,
   42.5545,       840,
   42.5748,       834,
    42.595,       828,
   42.6152,       912,
   42.6354,       943,
   42.6556,       940,
   42.6759,       941,
   42.6961,       922,
   42.7163,      1009,
   42.7365,       997,
   42.7567,       967,
    42.777,       954,
   42.7972,       968,
   42.8174,       941,
   42.8376,       906,
   42.8578,       838,
    42.878,       843,
   42.8983,       801,
   42.9185,       736,
   42.9387,       753,
   42.9589,       735,
   42.9791,       638,
   42.9994,       631,
   43.0196,       626,
   43.0398,       609,
     43.06,       555,
   43.0802,       589,
   43.1005,       583,
   43.1207,       525,
   43.1409,       521,
   43.1611,       547,
   43.1813,       527,
   43.2015,       481,
   43.2218,       486,
    43.242,       495,
   43.2622,       453,
   43.2824,       481,
   43.3026,       484,
   43.3229,       463,
   43.3431,       487,
   43.3633,       527,
   43.3835,       459,
   43.4037,       487,
    43.424,       498,
   43.4442,       476,
   43.4644,       486,
   43.4846,       480,
   43.5048,       494,
    43.525,       483,
   43.5453,       506,
   43.5655,       520,
   43.5857,       516,
   43.6059,       527,
   43.6261,       556,
   43.6464,       613,
   43.6666,       617,
   43.6868,       613,
    43.707,       592,
   43.7272,       573,
   43.7475,       583,
   43.7677,       588,
   43.7879,       547,
   43.8081,       591,
   43.8283,       502,
   43.8485,       507,
   43.8688,       463,
    43.889,       524,
   43.9092,       404,
   43.9294,       457,
   43.9496,       479,
   43.9699,       459,
   43.9901,       445,
   44.0103,       465,
   44.0305,       481,
   44.0507,       483,
    44.071,       456,
   44.0912,       476,
   44.1114,       449,
   44.1316,       446,
   44.1518,       476,
    44.172,       468,
   44.1923,       519,
   44.2125,       529,
   44.2327,       546,
   44.2529,       575,
   44.2731,       580,
   44.2934,       625,
   44.3136,       638,
   44.3338,       754,
    44.354,       856,
   44.3742,       952,
   44.3945,       967,
   44.4147,      1034,
   44.4349,       905,
   44.4551,       890,
   44.4753,       882,
   44.4955,       804,
   44.5158,       848,
    44.536,       725,
   44.5562,       655,
   44.5764,       657,
   44.5966,       546,
   44.6169,       509,
   44.6371,       527,
   44.6573,       516,
   44.6775,       484,
   44.6977,       488,
    44.718,       505,
   44.7382,       498,
   44.7584,       473,
   44.7786,       506,
   44.7988,       458,
    44.819,       468,
   44.8393,       480,
   44.8595,       532,
   44.8797,       540,
   44.8999,       542,
   44.9201,       587,
   44.9404,       567,
   44.9606,       681,
   44.9808,       639,
    45.001,       676,
   45.0212,       706,
   45.0415,       725,
   45.0617,       759,
   45.0819,       706,
   45.1021,       722,
   45.1223,       704,
   45.1425,       675,
   45.1628,       660,
    45.183,       691,
   45.2032,       683,
   45.2234,       717,
   45.2436,       684,
   45.2639,       708,
   45.2841,       741,
   45.3043,       716,
   45.3245,       654,
   45.3447,       632,
    45.365,       605,
   45.3852,       559,
   45.4054,       521,
   45.4256,       483,
   45.4458,       514,
    45.466,       468,
   45.4863,       466,
   45.5065,       477,
   45.5267,       433,
   45.5469,       436,
   45.5671,       451,
   45.5874,       394,
   45.6076,       459,
   45.6278,       413,
    45.648,       370,
   45.6682,       385,
   45.6885,       352,
   45.7087,       403,
   45.7289,       396,
   45.7491,       383,
   45.7693,       397,
   45.7895,       433,
   45.8098,       371,
     45.83,       403,
   45.8502,       398,
   45.8704,       367,
   45.8906,       369,
   45.9109,       367,
   45.9311,       404,
   45.9513,       438,
   45.9715,       386,
   45.9917,       392,
    46.012,       373,
   46.0322,       381,
   46.0524,       403,
   46.0726,       387,
   46.0928,       443,
   46.1131,       430,
   46.1333,       409,
   46.1535,       392,
   46.1737,       419,
   46.1939,       406,
   46.2141,       414,
   46.2344,       416,
   46.2546,       373,
   46.2748,       406,
    46.295,       425,
   46.3152,       419,
   46.3355,       420,
   46.3557,       421,
   46.3759,       414,
   46.3961,       457,
   46.4163,       447,
   46.4366,       447,
   46.4568,       459,
    46.477,       458,
   46.4972,       480,
   46.5174,       477,
   46.5376,       532,
   46.5579,       551,
   46.5781,       523,
   46.5983,       591,
   46.6185,       613,
   46.6387,       659,
    46.659,       713,
   46.6792,       685,
   46.6994,       736,
   46.7196,       858,
   46.7398,       859,
   46.7601,       906,
   46.7803,       971,
   46.8005,       984,
   46.8207,      1023,
   46.8409,      1071,
   46.8611,       977,
   46.8814,      1091,
   46.9016,       977,
   46.9218,      1020,
    46.942,      1022,
   46.9622,      1009,
   46.9825,      1035,
   47.0027,      1034,
   47.0229,       955,
   47.0431,       945,
   47.0633,       853,
   47.0836,       865,
   47.1038,       778,
    47.124,       811,
   47.1442,       804,
   47.1644,       711,
   47.1846,       769,
   47.2049,       744,
   47.2251,       681,
   47.2453,       644,
   47.2655,       567,
   47.2857,       621,
    47.306,       591,
   47.3262,       551,
   47.3464,       562,
   47.3666,       541,
   47.3868,       484,
   47.4071,       495,
   47.4273,       528,
   47.4475,       442,
   47.4677,       441,
   47.4879,       475,
   47.5081,       452,
   47.5284,       465,
   47.5486,       471,
   47.5688,       457,
    47.589,       441,
   47.6092,       470,
   47.6295,       410,
   47.6497,       433,
   47.6699,       423,
   47.6901,       440,
   47.7103,       422,
   47.7306,       432,
   47.7508,       397,
    47.771,       439,
   47.7912,       446,
   47.8114,       471,
   47.8316,       439,
   47.8519,       483,
   47.8721,       424,
   47.8923,       446,
   47.9125,       453,
   47.9327,       431,
    47.953,       447,
   47.9732,       427,
   47.9934,       415,
   48.0136,       431,
   48.0338,       388,
   48.0541,       479,
   48.0743,       444,
   48.0945,       485,
   48.1147,       422,
   48.1349,       469,
   48.1551,       521,
   48.1754,       426,
   48.1956,       489,
   48.2158,       489,
    48.236,       446,
   48.2562,       477,
   48.2765,       494,
   48.2967,       520,
   48.3169,       522,
   48.3371,       481,
   48.3573,       493,
   48.3776,       512,
   48.3978,       511,
    48.418,       495,
   48.4382,       473,
   48.4584,       456,
   48.4786,       519,
   48.4989,       491,
   48.5191,       466,
   48.5393,       422,
   48.5595,       431,
   48.5797,       409,
      48.6,       406,
   48.6202,       386,
   48.6404,       374,
   48.6606,       395,
   48.6808,       399,
   48.7011,       368,
   48.7213,       364,
   48.7415,       372,
   48.7617,       370,
   48.7819,       368,
   48.8021,       405,
   48.8224,       407,
   48.8426,       374,
   48.8628,       387,
    48.883,       334,
   48.9032,       337,
   48.9235,       389,
   48.9437,       413,
   48.9639,       345,
   48.9841,       368,
   49.0043,       335,
   49.0246,       386,
   49.0448,       367,
    49.065,       347,
   49.0852,       395,
   49.1054,       355,
   49.1256,       354,
   49.1459,       372,
   49.1661,       403,
   49.1863,       317,
   49.2065,       355,
   49.2267,       370,
    49.247,       349,
   49.2672,       374,
   49.2874,       367,
   49.3076,       379,
   49.3278,       351,
   49.3481,       363,
   49.3683,       365,
   49.3885,       351,
   49.4087,       386,
   49.4289,       376,
   49.4491,       353,
   49.4694,       375,
   49.4896,       375,
   49.5098,       363,
     49.53,       376,
   49.5502,       380,
   49.5705,       362,
   49.5907,       351,
   49.6109,       368,
   49.6311,       327,
   49.6513,       386,
   49.6716,       365,
   49.6918,       345,
    49.712,       368,
   49.7322,       367,
   49.7524,       361,
   49.7726,       365,
   49.7929,       352,
   49.8131,       376,
   49.8333,       364,
   49.8535,       356,
   49.8737,       349,
    49.894,       360,
   49.9142,       370,
   49.9344,       367,
   49.9546,       353,
   49.9748,       373,
   49.9951,       348,
   50.0153,       391,
   50.0355,       368,
   50.0557,       360,
   50.0759,       377,
   50.0961,       362,
   50.1164,       381,
   50.1366,       385,
   50.1568,       409,
    50.177,       387,
   50.1972,       433,
   50.2175,       445,
   50.2377,       413,
   50.2579,       448,
   50.2781,       454,
   50.2983,       522,
   50.3186,       497,
   50.3388,       577,
    50.359,       546,
   50.3792,       601,
   50.3994,       621,
   50.4196,       624,
   50.4399,       600,
   50.4601,       587,
   50.4803,       536,
   50.5005,       539,
   50.5207,       525,
    50.541,       469,
   50.5612,       472,
   50.5814,       435,
   50.6016,       412,
   50.6218,       421,
   50.6421,       371,
   50.6623,       410,
   50.6825,       379,
   50.7027,       375,
   50.7229,       418,
   50.7431,       377,
   50.7634,       385,
   50.7836,       380,
   50.8038,       414,
    50.824,       402,
   50.8442,       422,
   50.8645,       390,
   50.8847,       416,
   50.9049,       409,
   50.9251,       388,
   50.9453,       422,
   50.9656,       439,
   50.9858,       404,
    51.006,       393,
   51.0262,       442,
   51.0464,       434,
   51.0666,       470,
   51.0869,       481,
   51.1071,       511,
   51.1273,       556,
   51.1475,       568,
   51.1677,       565,
    51.188,       567,
   51.2082,       625,
   51.2284,       680,
   51.2486,       716,
   51.2688,       768,
   51.2891,       758,
   51.3093,       819,
   51.3295,       873,
   51.3497,       841,
   51.3699,       871,
   51.3901,       897,
   51.4104,       867,
   51.4306,       897,
   51.4508,       886,
    51.471,       830,
   51.4912,       839,
   51.5115,       819,
   51.5317,       835,
   51.5519,       758,
   51.5721,       719,
   51.5923,       775,
   51.6126,       747,
   51.6328,       654,
    51.653,       636,
   51.6732,       651,
   51.6934,       575,
   51.7136,       636,
   51.7339,       556,
   51.7541,       554,
   51.7743,       524,
   51.7945,       540,
   51.8147,       499,
    51.835,       489,
   51.8552,       453,
   51.8754,       475,
   51.8956,       462,
   51.9158,       471,
   51.9361,       430,
   51.9563,       503,
   51.9765,       461,
   51.9967,       412,
   52.0169,       401,
   52.0371,       426,
   52.0574,       424,
   52.0776,       427,
   52.0978,       397,
    52.118,       401,
   52.1382,       420,
   52.1585,       413,
   52.1787,       403,
   52.1989,       399,
   52.2191,       426,
   52.2393,       410,
   52.2596,       404,
   52.2798,       376,
      52.3,       384,
   52.3202,       436,
   52.3404,       383,
   52.3606,       379,
   52.3809,       397,
   52.4011,       380,
   52.4213,       373,
   52.4415,       368,
   52.4617,       394,
    52.482,       369,
   52.5022,       379,
   52.5224,       381,
   52.5426,       371,
   52.5628,       390,
   52.5831,       404,
   52.6033,       366,
   52.6235,       350,
   52.6437,       367,
   52.6639,       386,
   52.6841,       376,
   52.7044,       346,
   52.7246,       376,
   52.7448,       360,
    52.765,       358,
   52.7852,       386,
   52.8055,       353,
   52.8257,       358,
   52.8459,       358,
   52.8661,       357,
   52.8863,       362,
   52.9066,       347,
   52.9268,       360,
    52.947,       385,
   52.9672,       404,
   52.9874,       367,
   53.0076,       413,
   53.0279,       407,
   53.0481,       435,
   53.0683,       458,
   53.0885,       427,
   53.1087,       491,
    53.129,       473,
   53.1492,       535,
   53.1694,       490,
   53.1896,       522,
   53.2098,       624,
   53.2301,       549,
   53.2503,       644,
   53.2705,       691,
   53.2907,       850,
   53.3109,       996,
   53.3311,      1200,
   53.3514,      1532,
   53.3716,      1960,
   53.3918,      2340,
    53.412,      2663,
   53.4322,      2667,
   53.4525,      2665,
   53.4727,      2574,
   53.4929,      2508,
   53.5131,      2337,
   53.5333,      2156,
   53.5536,      2085,
   53.5738,      1839,
    53.594,      1780,
   53.6142,      1488,
   53.6344,      1313,
   53.6546,      1049,
   53.6749,       945,
   53.6951,       823,
   53.7153,       807,
   53.7355,       801,
   53.7557,       799,
    53.776,       839,
   53.7962,       878,
   53.8164,       896,
   53.8366,       952,
   53.8568,      1114,
   53.8771,      1212,
   53.8973,      1208,
   53.9175,      1196,
   53.9377,      1124,
   53.9579,      1049,
   53.9781,      1047,
   53.9984,       958,
   54.0186,       932,
   54.0388,       883,
    54.059,       785,
   54.0792,       663,
   54.0995,       714,
   54.1197,       576,
   54.1399,       533,
   54.1601,       543,
   54.1803,       519,
   54.2006,       468,
   54.2208,       424,
    54.241,       457,
   54.2612,       404,
   54.2814,       412,
   54.3016,       399,
   54.3219,       413,
   54.3421,       429,
   54.3623,       373,
   54.3825,       376,
   54.4027,       367,
    54.423,       380,
   54.4432,       359,
   54.4634,       352,
   54.4836,       383,
   54.5038,       354,
   54.5241,       391,
   54.5443,       327,
   54.5645,       346,
   54.5847,       321,
   54.6049,       368,
   54.6251,       328,
   54.6454,       378,
   54.6656,       322,
   54.6858,       341,
    54.706,       352,
   54.7262,       337,
   54.7465,       359,
   54.7667,       333,
   54.7869,       319,
   54.8071,       333,
   54.8273,       313,
   54.8476,       317,
   54.8678,       312,
    54.888,       326,
   54.9082,       365,
   54.9284,       343,
   54.9486,       317,
   54.9689,       342,
   54.9891,       317,
   55.0093,       343,
   55.0295,       333,
   55.0497,       317,
     55.07,       298,
   55.0902,       352,
   55.1104,       353,
   55.1306,       342,
   55.1508,       331,
   55.1711,       338,
   55.1913,       317,
   55.2115,       335,
   55.2317,       340,
   55.2519,       348,
   55.2721,       291,
   55.2924,       348,
   55.3126,       332,
   55.3328,       330,
    55.353,       298,
   55.3732,       313,
   55.3935,       346,
   55.4137,       347,
   55.4339,       376,
   55.4541,       362,
   55.4743,       343,
   55.4946,       361,
   55.5148,       330,
    55.535,       339,
   55.5552,       333,
   55.5754,       312,
   55.5956,       333,
   55.6159,       357,
   55.6361,       334,
   55.6563,       354,
   55.6765,       354,
   55.6967,       332,
    55.717,       376,
   55.7372,       332,
   55.7574,       376,
   55.7776,       351,
   55.7978,       378,
   55.8181,       383,
   55.8383,       401,
   55.8585,       414,
   55.8787,       410,
   55.8989,       425,
   55.9191,       383,
   55.9394,       447,
   55.9596,       436,
   55.9798,       422,
        56,       436,
   56.0202,       470,
   56.0405,       470,
   56.0607,       487,
   56.0809,       486,
   56.1011,       513,
   56.1213,       511,
   56.1416,       520,
   56.1618,       539,
    56.182,       541,
   56.2022,       547,
   56.2224,       548,
   56.2426,       577,
   56.2629,       610,
   56.2831,       579,
   56.3033,       568,
   56.3235,       600,
   56.3437,       610,
    56.364,       637,
   56.3842,       645,
   56.4044,       668,
   56.4246,       615,
   56.4448,       672,
   56.4651,       649,
   56.4853,       703,
   56.5055,       730,
   56.5257,       751,
   56.5459,       722,
   56.5661,       767,
   56.5864,       784,
   56.6066,       829,
   56.6268,       844,
    56.647,       882,
   56.6672,       864,
   56.6875,       862,
   56.7077,       879,
   56.7279,       907,
   56.7481,       971,
   56.7683,       985,
   56.7886,       986,
   56.8088,      1045,
    56.829,      1020,
   56.8492,      1080,
   56.8694,      1011,
   56.8897,      1158,
   56.9099,      1071,
   56.9301,      1055,
   56.9503,      1063,
   56.9705,       979,
   56.9907,      1015,
    57.011,      1035,
   57.0312,       912,
   57.0514,       903,
   57.0716,       881,
   57.0918,       819,
   57.1121,       828,
   57.1323,       797,
   57.1525,       728,
   57.1727,       684,
   57.1929,       699,
   57.2132,       676,
   57.2334,       636,
   57.2536,       611,
   57.2738,       597,
    57.294,       580,
   57.3142,       567,
   57.3345,       606,
   57.3547,       500,
   57.3749,       526,
   57.3951,       528,
   57.4153,       559,
   57.4356,       550,
   57.4558,       525,
    57.476,       566,
   57.4962,       519,
   57.5164,       541,
   57.5367,       610,
   57.5569,       592,
   57.5771,       571,
   57.5973,       614,
   57.6175,       582,
   57.6377,       631,
    57.658,       574,
   57.6782,       699,
   57.6984,       660,
   57.7186,       634,
   57.7388,       745,
   57.7591,       781,
   57.7793,       784,
   57.7995,       773,
   57.8197,       836,
   57.8399,       856,
   57.8602,       822,
   57.8804,       864,
   57.9006,       863,
   57.9208,       868,
    57.941,       849,
   57.9612,       892,
   57.9815,       875,
   58.0017,       861,
   58.0219,       872,
   58.0421,       832,
   58.0623,       826,
   58.0826,       813,
   58.1028,       819,
    58.123,       702,
   58.1432,       759,
   58.1634,       715,
   58.1837,       733,
   58.2039,       713,
   58.2241,       676,
   58.2443,       667,
   58.2645,       637,
   58.2847,       645,
    58.305,       620,
   58.3252,       617,
   58.3454,       621,
   58.3656,       557,
   58.3858,       572,
   58.4061,       540,
   58.4263,       548,
   58.4465,       531,
   58.4667,       523,
   58.4869,       500,
   58.5072,       496,
   58.5274,       480,
   58.5476,       466,
   58.5678,       433,
    58.588,       441,
   58.6082,       494,
   58.6285,       470,
   58.6487,       468,
   58.6689,       451,
   58.6891,       434,
   58.7093,       461,
   58.7296,       414,
   58.7498,       434,
     58.77,       436,
   58.7902,       438,
   58.8104,       453,
   58.8307,       415,
   58.8509,       430,
   58.8711,       429,
   58.8913,       413,
   58.9115,       426,
   58.9317,       435,
    58.952,       458,
   58.9722,       452,
   58.9924,       470,
   59.0126,       489,
   59.0328,       530,
   59.0531,       542,
   59.0733,       548,
   59.0935,       603,
   59.1137,       608,
   59.1339,       655,
   59.1542,       606,
   59.1744,       630,
   59.1946,       576,
   59.2148,       533,
    59.235,       548,
   59.2552,       509,
   59.2755,       517,
   59.2957,       446,
   59.3159,       462,
   59.3361,       427,
   59.3563,       451,
   59.3766,       425,
   59.3968,       355,
    59.417,       378,
   59.4372,       342,
   59.4574,       352,
   59.4777,       375,
   59.4979,       351,
   59.5181,       358,
   59.5383,       356,
   59.5585,       328,
   59.5787,       336,
    59.599,       357,
   59.6192,       313,
   59.6394,       317,
   59.6596,       331,
   59.6798,       344,
   59.7001,       329,
   59.7203,       329,
   59.7405,       322,
   59.7607,       336,
   59.7809,       326,
   59.8012,       327,
   59.8214,       313,
   59.8416,       319,
   59.8618,       315,
    59.882,       300,
   59.9022,       273,
   59.9225,       269,
   59.9427,       310,
   59.9629,       279,
   59.9831,       265,
   60.0033,       326,
   60.0236,       300,
   60.0438,       268,
    60.064,       298,
   60.0842,       280,
   60.1044,       257,
   60.1247,       284,
   60.1449,       272,
   60.1651,       258,
   60.1853,       261,
   60.2055,       264,
   60.2257,       293,
    60.246,       283,
   60.2662,       276,
   60.2864,       296,
   60.3066,       272,
   60.3268,       275,
   60.3471,       277,
   60.3673,       267,
   60.3875,       276,
   60.4077,       295,
   60.4279,       282,
   60.4482,       265,
   60.4684,       243,
   60.4886,       245,
   60.5088,       281,
    60.529,       277,
   60.5492,       297,
   60.5695,       261,
   60.5897,       274,
   60.6099,       261,
   60.6301,       275,
   60.6503,       285,
   60.6706,       286,
   60.6908,       281,
    60.711,       247,
   60.7312,       269,
   60.7514,       253,
   60.7717,       262,
   60.7919,       261,
   60.8121,       271,
   60.8323,       254,
   60.8525,       293,
   60.8727,       268,
    60.893,       286,
   60.9132,       272,
   60.9334,       294,
   60.9536,       279,
   60.9738,       280,
   60.9941,       275,
   61.0143,       286,
   61.0345,       249,
   61.0547,       252,
   61.0749,       297,
   61.0952,       286,
   61.1154,       278,
   61.1356,       287,
   61.1558,       295,
    61.176,       302,
   61.1962,       301,
   61.2165,       306,
   61.2367,       295,
   61.2569,       326,
   61.2771,       304,
   61.2973,       319,
   61.3176,       290,
   61.3378,       287,
    61.358,       286,
   61.3782,       293,
   61.3984,       297,
   61.4187,       311,
   61.4389,       310,
   61.4591,       308,
   61.4793,       286,
   61.4995,       310,
   61.5197,       285,
     61.54,       331,
   61.5602,       319,
   61.5804,       326,
   61.6006,       344,
   61.6208,       395,
   61.6411,       397,
   61.6613,       383,
   61.6815,       420,
   61.7017,       409,
   61.7219,       460,
   61.7422,       493,
   61.7624,       543,
   61.7826,       637,
   61.8028,       649,
    61.823,       652,
   61.8432,       648,
   61.8635,       605,
   61.8837,       627,
   61.9039,       560,
   61.9241,       513,
   61.9443,       540,
   61.9646,       484,
   61.9848,       475,
    62.005,       480,
   62.0252,       407,
   62.0454,       387,
   62.0657,       405,
   62.0859,       386,
   62.1061,       336,
   62.1263,       325,
   62.1465,       375,
   62.1667,       316,
    62.187,       347,
   62.2072,       360,
   62.2274,       361,
   62.2476,       368,
   62.2678,       382,
   62.2881,       355,
   62.3083,       374,
   62.3285,       366,
   62.3487,       354,
   62.3689,       389,
   62.3892,       448,
   62.4094,       456,
   62.4296,       430,
   62.4498,       465,
     62.47,       455,
   62.4902,       501,
   62.5105,       465,
   62.5307,       422,
   62.5509,       421,
   62.5711,       436,
   62.5913,       429,
   62.6116,       426,
   62.6318,       356,
    62.652,       383,
   62.6722,       334,
   62.6924,       340,
   62.7127,       323,
   62.7329,       326,
   62.7531,       307,
   62.7733,       290,
   62.7935,       322,
   62.8137,       319,
    62.834,       279,
   62.8542,       260,
   62.8744,       278,
   62.8946,       271,
   62.9148,       289,
   62.9351,       289,
   62.9553,       284,
   62.9755,       244,
   62.9957,       279,
   63.0159,       254,
   63.0362,       274,
   63.0564,       247,
   63.0766,       266,
   63.0968,       269,
    63.117,       258,
   63.1372,       285,
   63.1575,       259,
   63.1777,       251,
   63.1979,       285,
   63.2181,       263,
   63.2383,       250,
   63.2586,       268,
   63.2788,       287,
    63.299,       270,
   63.3192,       246,
   63.3394,       266,
   63.3597,       274,
   63.3799,       276,
   63.4001,       272,
   63.4203,       282,
   63.4405,       282,
   63.4607,       292,
    63.481,       259,
   63.5012,       320,
   63.5214,       307,
   63.5416,       338,
   63.5618,       337,
   63.5821,       382,
   63.6023,       377,
   63.6225,       382,
   63.6427,       364,
   63.6629,       331,
   63.6832,       315,
   63.7034,       343,
   63.7236,       322,
   63.7438,       310,
    63.764,       316,
   63.7842,       300,
   63.8045,       309,
   63.8247,       300,
   63.8449,       328,
   63.8651,       269,
   63.8853,       276,
   63.9056,       290,
   63.9258,       280,
    63.946,       286,
   63.9662,       254,
   63.9864,       236,
   64.0067,       243,
   64.0269,       245,
   64.0471,       250,
   64.0673,       266,
   64.0875,       255,
   64.1077,       251,
    64.128,       239,
   64.1482,       234,
   64.1684,       227,
   64.1886,       271,
   64.2088,       245,
   64.2291,       225,
   64.2493,       234,
   64.2695,       269,
   64.2897,       249,
   64.3099,       236,
   64.3302,       224,
   64.3504,       235,
   64.3706,       233,
   64.3908,       241,
    64.411,       242,
   64.4312,       234,
   64.4515,       232,
   64.4717,       270,
   64.4919,       236,
   64.5121,       241,
   64.5323,       245,
   64.5526,       241,
   64.5728,       224,
    64.593,       235,
   64.6132,       232,
   64.6334,       223,
   64.6537,       236,
   64.6739,       245,
   64.6941,       215,
   64.7143,       248,
   64.7345,       222,
   64.7547,       217,
    64.775,       228,
   64.7952,       224,
   64.8154,       242,
   64.8356,       246,
   64.8558,       239,
   64.8761,       235,
   64.8963,       268,
   64.9165,       225,
   64.9367,       237,
   64.9569,       239,
   64.9772,       257,
   64.9974,       260,
   65.0176,       266,
   65.0378,       221,
    65.058,       275,
   65.0782,       236,
   65.0985,       233,
   65.1187,       255,
   65.1389,       267,
   65.1591,       231,
   65.1793,       244,
   65.1996,       263,
   65.2198,       216,
     65.24,       245,
   65.2602,       205,
   65.2804,       233,
   65.3007,       232,
   65.3209,       232,
   65.3411,       214,
   65.3613,       198,
   65.3815,       235,
   65.4017,       212,
    65.422,       214,
   65.4422,       234,
   65.4624,       226,
   65.4826,       242,
   65.5028,       231,
   65.5231,       239,
   65.5433,       235,
   65.5635,       244,
   65.5837,       221,
   65.6039,       250,
   65.6242,       258,
   65.6444,       235,
   65.6646,       253,
   65.6848,       228,
    65.705,       246,
   65.7252,       234,
   65.7455,       228,
   65.7657,       245,
   65.7859,       235,
   65.8061,       248,
   65.8263,       260,
   65.8466,       241,
   65.8668,       236,
    65.887,       230,
   65.9072,       212,
   65.9274,       238,
   65.9477,       251,
   65.9679,       216,
   65.9881,       236,
   66.0083,       238,
   66.0285,       230,
   66.0487,       267,
    66.069,       214,
   66.0892,       229,
   66.1094,       246,
   66.1296,       246,
   66.1498,       239,
   66.1701,       252,
   66.1903,       252,
   66.2105,       257,
   66.2307,       242,
   66.2509,       252,
   66.2712,       258,
   66.2914,       250,
   66.3116,       259,
   66.3318,       268,
    66.352,       274,
   66.3722,       245,
   66.3925,       270,
   66.4127,       266,
   66.4329,       289,
   66.4531,       293,
   66.4733,       279,
   66.4936,       299,
   66.5138,       302,
    66.534,       311,
   66.5542,       305,
   66.5744,       328,
   66.5947,       340,
   66.6149,       392,
   66.6351,       425,
   66.6553,       464,
   66.6755,       567,
   66.6957,       671,
    66.716,       728,
   66.7362,       807,
   66.7564,       836,
   66.7766,       706,
   66.7968,       683,
   66.8171,       616,
   66.8373,       545,
   66.8575,       582,
   66.8777,       549,
   66.8979,       581,
   66.9182,       514,
   66.9384,       518,
   66.9586,       467,
   66.9788,       450,
    66.999,       425,
   67.0192,       338,
   67.0395,       329,
   67.0597,       321,
   67.0799,       305,
   67.1001,       297,
   67.1203,       272,
   67.1406,       310,
   67.1608,       278,
    67.181,       271,
   67.2012,       247,
   67.2214,       246,
   67.2417,       257,
   67.2619,       291,
   67.2821,       271,
   67.3023,       251,
   67.3225,       238,
   67.3427,       267,
    67.363,       253,
   67.3832,       234,
   67.4034,       275,
   67.4236,       248,
   67.4438,       249,
   67.4641,       263,
   67.4843,       275,
   67.5045,       243,
   67.5247,       232,
   67.5449,       285,
   67.5652,       265,
   67.5854,       302,
   67.6056,       288,
   67.6258,       264,
    67.646,       289,
   67.6663,       284,
   67.6865,       270,
   67.7067,       293,
   67.7269,       306,
   67.7471,       296,
   67.7673,       315,
   67.7876,       306,
   67.8078,       290,
    67.828,       309,
   67.8482,       293,
   67.8684,       310,
   67.8887,       297,
   67.9089,       288,
   67.9291,       318,
   67.9493,       305,
   67.9695,       319,
   67.9898,       298,
     68.01,       286,
   68.0302,       287,
   68.0504,       290,
   68.0706,       312,
   68.0908,       283,
   68.1111,       271,
   68.1313,       292,
   68.1515,       272,
   68.1717,       289,
   68.1919,       288,
   68.2122,       281,
   68.2324,       268,
   68.2526,       262,
   68.2728,       265,
    68.293,       278,
   68.3133,       305,
   68.3335,       300,
   68.3537,       297,
   68.3739,       254,
   68.3941,       300,
   68.4143,       292,
   68.4346,       296,
   68.4548,       296,
    68.475,       298,
   68.4952,       297,
   68.5154,       313,
   68.5357,       353,
   68.5559,       305,
   68.5761,       317,
   68.5963,       369,
   68.6165,       343,
   68.6368,       348,
    68.657,       362,
   68.6772,       393,
   68.6974,       413,
   68.7176,       406,
   68.7378,       404,
   68.7581,       412,
   68.7783,       420,
   68.7985,       403,
   68.8187,       444,
   68.8389,       415,
   68.8592,       428,
   68.8794,       405,
   68.8996,       419,
   68.9198,       431,
     68.94,       417,
   68.9603,       441,
   68.9805,       411,
   69.0007,       419,
   69.0209,       414,
   69.0411,       428,
   69.0613,       402,
   69.0816,       405,
   69.1018,       360,
    69.122,       386,
   69.1422,       405,
   69.1624,       368,
   69.1827,       358,
   69.2029,       382,
   69.2231,       346,
   69.2433,       319,
   69.2635,       333,
   69.2838,       331,
    69.304,       331,
   69.3242,       315,
   69.3444,       318,
   69.3646,       328,
   69.3848,       318,
   69.4051,       290,
   69.4253,       264,
   69.4455,       306,
   69.4657,       285,
   69.4859,       270,
   69.5062,       306,
   69.5264,       272,
   69.5466,       300,
   69.5668,       287,
    69.587,       292,
   69.6073,       282,
   69.6275,       274,
   69.6477,       253,
   69.6679,       276,
   69.6881,       281,
   69.7083,       249,
   69.7286,       255,
   69.7488,       244,
    69.769,       249,
   69.7892,       284,
   69.8094,       298,
   69.8297,       281,
   69.8499,       309,
   69.8701,       286,
   69.8903,       291,
   69.9105,       257,
   69.9308,       264,
    69.951,       271,
   69.9712,       311,
   69.9914,       274,
   70.0116,       310,
   70.0318,       285,
   70.0521,       270,
