;RAW4.00
[RawHeader]
Date=09/12/2019
EstimatedTotalTime=1612.04
FurtherDQLReading=0
HardwareIndicator=65519
MeasuredTotalTime=1612.04
MeasurementFlag=1
NumberOfMeasuredRanges=1
NumberOfRanges=1
Time=12:41:54

[VarInfo]
Type=USER
Flags=0
Value=Bruker Service

[VarInfo]
Type=SAMPLEID
Flags=0
Value=Commander Sample ID

[VarInfo]
Type=COMMENT
Flags=0
Value=

[VarInfo]
Type=UTF
Flags=0
Value=

[VarInfo]
Type=CREATOR
Flags=0
Value=BrmlToV4Converter

[VarInfo]
Type=CREATOR_VERSION
Flags=0
Value=7.3.0.0

[HardwareConfiguration]
AbsorptionFactor=9999
ActivateAbsorber=0
Alpha1=1.78897
Alpha2=1.79285
AlphaAverage=1.79026
AlphaRatio=0.5
Analyzer=0
Anode=Co
AntiScatteringSlit=9999
BeamOpticsFlags=0
Beta=1.62079
BetaRelativeIntensity=0
DeactivateAbsorber=0
DetectorSlit=9999
DivergenceSlit=1
GoniometerControl=0
GoniometerDiameter=282
GoniometerModel=256
GoniometerStage=7
Monochromator=0
NearSampleSlit=9999
PrimarySollerSlit=9999
SampleChanger=0
SecondSollerSlit=9999
SynchronousAxis=0
ThinFilmAttachment=9999
WaveUnit=A

[RangeHeader]
ActuallyUsedLambda=1.79026
AdditionalDetectorMask=257
DataRecordLength=4
DelayTime=0
DisplayPlaneNumber=0
EstimatedScanTime=1612
ExtraParametersMask=0
GeneratorCurrent=10
GeneratorVoltage=30
Increment=0.0202188
Increment3=0
NumberOfCompletedData=2969
NumberOfCounts=1
NumberOfDetectors=0
NumberOfDrives=2
NumberOfEncoderDrives=0
NumberOfMeasuredData=2969
NumberOfVaryingParameters=0
RangeStartTime=0
RotationSpeed=1
ScanMode=1
ScanType=Locked Coupled
SimulatedMeasConditions=0
SlitChangerIn=0
SmootingWidth=0
Start=10.0023
Steps=2969
SynchronousRotation=0
Time=82.5

[VarInfo]
Type=PSD_DISCRIM
Flags=0
Value=0.11;0.25

[PSD]
ActualTwoTheta=9999
FirstUsedChannel=0
FixedPSD=0
PSDOpening=5.00414
PSDType=5

[Drive]
DriveFlags=1
DriveName=2Theta
DriveNumber=2
DriveOffset=0
OffsetIndex=0
OscillationAmplitude=0
OscillationSpeed=0
StartPosition=10.0023

[Drive]
DriveFlags=1
DriveName=Theta
DriveNumber=1
DriveOffset=0
OffsetIndex=0
OscillationAmplitude=0
OscillationSpeed=0
StartPosition=5.00117

[Data]
     Angle,       PSD,
   10.0023,       681,
   10.0226,       753,
   10.0428,       705,
    10.063,       716,
   10.0832,       653,
   10.1034,       698,
   10.1237,       700,
   10.1439,       667,
   10.1641,       656,
   10.1843,       675,
   10.2045,       664,
   10.2247,       697,
    10.245,       722,
   10.2652,       707,
   10.2854,       695,
   10.3056,       675,
   10.3258,       712,
   10.3461,       725,
   10.3663,       647,
   10.3865,       716,
   10.4067,       697,
   10.4269,       627,
   10.4472,       707,
   10.4674,       664,
   10.4876,       679,
   10.5078,       625,
    10.528,       660,
   10.5482,       664,
   10.5685,       710,
   10.5887,       645,
   10.6089,       685,
   10.6291,       663,
   10.6493,       641,
   10.6696,       678,
   10.6898,       689,
     10.71,       661,
   10.7302,       681,
   10.7504,       659,
   10.7707,       621,
   10.7909,       677,
   10.8111,       640,
   10.8313,       661,
   10.8515,       705,
   10.8717,       671,
    10.892,       684,
   10.9122,       655,
   10.9324,       691,
   10.9526,       699,
   10.9728,       619,
   10.9931,       648,
   11.0133,       691,
   11.0335,       630,
   11.0537,       665,
   11.0739,       661,
   11.0942,       665,
   11.1144,       641,
   11.1346,       709,
   11.1548,       709,
    11.175,       689,
   11.1952,       686,
   11.2155,       666,
   11.2357,       651,
   11.2559,       630,
   11.2761,       683,
   11.2963,       697,
   11.3166,       745,
   11.3368,       681,
    11.357,       642,
   11.3772,       687,
   11.3974,       657,
   11.4177,       632,
   11.4379,       624,
   11.4581,       640,
   11.4783,       653,
   11.4985,       640,
   11.5187,       611,
    11.539,       686,
   11.5592,       656,
   11.5794,       662,
   11.5996,       691,
   11.6198,       699,
   11.6401,       621,
   11.6603,       692,
   11.6805,       654,
   11.7007,       662,
   11.7209,       679,
   11.7412,       605,
   11.7614,       664,
   11.7816,       648,
   11.8018,       645,
    11.822,       614,
   11.8422,       661,
   11.8625,       659,
   11.8827,       633,
   11.9029,       636,
   11.9231,       691,
   11.9433,       632,
   11.9636,       657,
   11.9838,       647,
    12.004,       628,
   12.0242,       631,
   12.0444,       648,
   12.0647,       611,
   12.0849,       636,
   12.1051,       651,
   12.1253,       621,
   12.1455,       646,
   12.1657,       632,
    12.186,       642,
   12.2062,       638,
   12.2264,       635,
   12.2466,       663,
   12.2668,       636,
   12.2871,       651,
   12.3073,       632,
   12.3275,       661,
   12.3477,       623,
   12.3679,       617,
   12.3882,       677,
   12.4084,       679,
   12.4286,       666,
   12.4488,       619,
    12.469,       652,
   12.4892,       637,
   12.5095,       578,
   12.5297,       627,
   12.5499,       612,
   12.5701,       631,
   12.5903,       608,
   12.6106,       626,
   12.6308,       656,
    12.651,       632,
   12.6712,       634,
   12.6914,       611,
   12.7117,       618,
   12.7319,       656,
   12.7521,       649,
   12.7723,       614,
   12.7925,       649,
   12.8127,       605,
    12.833,       623,
   12.8532,       667,
   12.8734,       635,
   12.8936,       665,
   12.9138,       568,
   12.9341,       649,
   12.9543,       638,
   12.9745,       603,
   12.9947,       621,
   13.0149,       608,
   13.0352,       657,
   13.0554,       620,
   13.0756,       664,
   13.0958,       625,
    13.116,       611,
   13.1362,       640,
   13.1565,       636,
   13.1767,       652,
   13.1969,       617,
   13.2171,       614,
   13.2373,       613,
   13.2576,       615,
   13.2778,       687,
    13.298,       681,
   13.3182,       634,
   13.3384,       648,
   13.3587,       624,
   13.3789,       601,
   13.3991,       654,
   13.4193,       595,
   13.4395,       627,
   13.4597,       608,
     13.48,       610,
   13.5002,       659,
   13.5204,       592,
   13.5406,       617,
   13.5608,       639,
   13.5811,       629,
   13.6013,       645,
   13.6215,       626,
   13.6417,       596,
   13.6619,       610,
   13.6822,       630,
   13.7024,       619,
   13.7226,       652,
   13.7428,       596,
    13.763,       624,
   13.7832,       583,
   13.8035,       627,
   13.8237,       581,
   13.8439,       634,
   13.8641,       637,
   13.8843,       623,
   13.9046,       615,
   13.9248,       613,
    13.945,       586,
   13.9652,       628,
   13.9854,       610,
   14.0057,       656,
   14.0259,       607,
   14.0461,       604,
   14.0663,       584,
   14.0865,       612,
   14.1068,       617,
    14.127,       581,
   14.1472,       589,
   14.1674,       609,
   14.1876,       624,
   14.2078,       622,
   14.2281,       584,
   14.2483,       608,
   14.2685,       619,
   14.2887,       564,
   14.3089,       587,
   14.3292,       562,
   14.3494,       622,
   14.3696,       583,
   14.3898,       623,
     14.41,       586,
   14.4303,       627,
   14.4505,       589,
   14.4707,       628,
   14.4909,       682,
   14.5111,       630,
   14.5313,       604,
   14.5516,       622,
   14.5718,       621,
    14.592,       623,
   14.6122,       599,
   14.6324,       624,
   14.6527,       591,
   14.6729,       558,
   14.6931,       612,
   14.7133,       597,
   14.7335,       648,
   14.7538,       650,
    14.774,       638,
   14.7942,       626,
   14.8144,       586,
   14.8346,       574,
   14.8548,       575,
   14.8751,       603,
   14.8953,       562,
   14.9155,       599,
   14.9357,       652,
   14.9559,       554,
   14.9762,       608,
   14.9964,       559,
   15.0166,       579,
   15.0368,       608,
    15.057,       625,
   15.0773,       583,
   15.0975,       578,
   15.1177,       591,
   15.1379,       556,
   15.1581,       535,
   15.1783,       584,
   15.1986,       573,
   15.2188,       598,
    15.239,       606,
   15.2592,       567,
   15.2794,       565,
   15.2997,       576,
   15.3199,       553,
   15.3401,       603,
   15.3603,       621,
   15.3805,       578,
   15.4008,       570,
    15.421,       580,
   15.4412,       603,
   15.4614,       562,
   15.4816,       601,
   15.5018,       536,
   15.5221,       553,
   15.5423,       526,
   15.5625,       544,
   15.5827,       543,
   15.6029,       534,
   15.6232,       559,
   15.6434,       522,
   15.6636,       547,
   15.6838,       553,
    15.704,       580,
   15.7243,       542,
   15.7445,       560,
   15.7647,       589,
   15.7849,       557,
   15.8051,       529,
   15.8253,       520,
   15.8456,       527,
   15.8658,       580,
    15.886,       546,
   15.9062,       544,
   15.9264,       493,
   15.9467,       488,
   15.9669,       537,
   15.9871,       558,
   16.0073,       537,
   16.0275,       549,
   16.0478,       576,
    16.068,       549,
   16.0882,       570,
   16.1084,       539,
   16.1286,       536,
   16.1488,       524,
   16.1691,       576,
   16.1893,       573,
   16.2095,       575,
   16.2297,       548,
   16.2499,       563,
   16.2702,       517,
   16.2904,       551,
   16.3106,       509,
   16.3308,       548,
    16.351,       590,
   16.3713,       582,
   16.3915,       541,
   16.4117,       582,
   16.4319,       515,
   16.4521,       547,
   16.4723,       555,
   16.4926,       589,
   16.5128,       524,
    16.533,       559,
   16.5532,       536,
   16.5734,       508,
   16.5937,       556,
   16.6139,       570,
   16.6341,       561,
   16.6543,       583,
   16.6745,       560,
   16.6948,       577,
    16.715,       521,
   16.7352,       520,
   16.7554,       573,
   16.7756,       557,
   16.7958,       578,
   16.8161,       582,
   16.8363,       578,
   16.8565,       606,
   16.8767,       588,
   16.8969,       626,
   16.9172,       604,
   16.9374,       554,
   16.9576,       535,
   16.9778,       529,
    16.998,       518,
   17.0183,       548,
   17.0385,       554,
   17.0587,       529,
   17.0789,       516,
   17.0991,       550,
   17.1193,       525,
   17.1396,       534,
   17.1598,       532,
     17.18,       509,
   17.2002,       529,
   17.2204,       544,
   17.2407,       580,
   17.2609,       574,
   17.2811,       574,
   17.3013,       595,
   17.3215,       572,
   17.3418,       593,
    17.362,       629,
   17.3822,       598,
   17.4024,       564,
   17.4226,       516,
   17.4428,       540,
   17.4631,       532,
   17.4833,       548,
   17.5035,       552,
   17.5237,       536,
   17.5439,       534,
   17.5642,       521,
   17.5844,       517,
   17.6046,       533,
   17.6248,       535,
    17.645,       558,
   17.6653,       565,
   17.6855,       534,
   17.7057,       539,
   17.7259,       511,
   17.7461,       505,
   17.7663,       553,
   17.7866,       543,
   17.8068,       520,
    17.827,       543,
   17.8472,       514,
   17.8674,       483,
   17.8877,       530,
   17.9079,       514,
   17.9281,       507,
   17.9483,       506,
   17.9685,       535,
   17.9888,       566,
    18.009,       507,
   18.0292,       530,
   18.0494,       515,
   18.0696,       538,
   18.0898,       562,
   18.1101,       520,
   18.1303,       530,
   18.1505,       507,
   18.1707,       534,
   18.1909,       535,
   18.2112,       544,
   18.2314,       490,
   18.2516,       498,
   18.2718,       516,
    18.292,       563,
   18.3123,       543,
   18.3325,       499,
   18.3527,       529,
   18.3729,       530,
   18.3931,       519,
   18.4133,       491,
   18.4336,       529,
   18.4538,       545,
    18.474,       509,
   18.4942,       582,
   18.5144,       537,
   18.5347,       518,
   18.5549,       478,
   18.5751,       559,
   18.5953,       490,
   18.6155,       532,
   18.6358,       480,
    18.656,       527,
   18.6762,       537,
   18.6964,       508,
   18.7166,       526,
   18.7368,       509,
   18.7571,       505,
   18.7773,       507,
   18.7975,       522,
   18.8177,       519,
   18.8379,       540,
   18.8582,       475,
   18.8784,       481,
   18.8986,       493,
   18.9188,       509,
    18.939,       532,
   18.9593,       503,
   18.9795,       527,
   18.9997,       467,
   19.0199,       512,
   19.0401,       494,
   19.0603,       473,
   19.0806,       516,
   19.1008,       534,
    19.121,       533,
   19.1412,       508,
   19.1614,       529,
   19.1817,       524,
   19.2019,       534,
   19.2221,       490,
   19.2423,       502,
   19.2625,       504,
   19.2828,       479,
    19.303,       493,
   19.3232,       462,
   19.3434,       519,
   19.3636,       487,
   19.3838,       540,
   19.4041,       480,
   19.4243,       488,
   19.4445,       504,
   19.4647,       539,
   19.4849,       485,
   19.5052,       523,
   19.5254,       484,
   19.5456,       497,
   19.5658,       529,
    19.586,       490,
   19.6063,       508,
   19.6265,       498,
   19.6467,       518,
   19.6669,       460,
   19.6871,       519,
   19.7073,       552,
   19.7276,       546,
   19.7478,       482,
    19.768,       554,
   19.7882,       510,
   19.8084,       487,
   19.8287,       516,
   19.8489,       535,
   19.8691,       504,
   19.8893,       543,
   19.9095,       517,
   19.9298,       541,
     19.95,       508,
   19.9702,       510,
   19.9904,       449,
   20.0106,       495,
   20.0308,       478,
   20.0511,       533,
   20.0713,       552,
   20.0915,       493,
   20.1117,       514,
   20.1319,       512,
   20.1522,       522,
   20.1724,       496,
   20.1926,       486,
   20.2128,       506,
    20.233,       487,
   20.2533,       539,
   20.2735,       514,
   20.2937,       497,
   20.3139,       531,
   20.3341,       463,
   20.3543,       503,
   20.3746,       495,
   20.3948,       506,
    20.415,       524,
   20.4352,       522,
   20.4554,       515,
   20.4757,       504,
   20.4959,       499,
   20.5161,       494,
   20.5363,       490,
   20.5565,       505,
   20.5768,       452,
    20.597,       492,
   20.6172,       531,
   20.6374,       522,
   20.6576,       526,
   20.6778,       535,
   20.6981,       502,
   20.7183,       522,
   20.7385,       504,
   20.7587,       469,
   20.7789,       534,
   20.7992,       488,
   20.8194,       540,
   20.8396,       551,
   20.8598,       506,
     20.88,       519,
   20.9003,       504,
   20.9205,       493,
   20.9407,       495,
   20.9609,       483,
   20.9811,       477,
   21.0013,       513,
   21.0216,       476,
   21.0418,       492,
    21.062,       524,
   21.0822,       498,
   21.1024,       508,
   21.1227,       525,
   21.1429,       457,
   21.1631,       543,
   21.1833,       510,
   21.2035,       504,
   21.2238,       500,
    21.244,       463,
   21.2642,       482,
   21.2844,       504,
   21.3046,       472,
   21.3248,       498,
   21.3451,       507,
   21.3653,       484,
   21.3855,       488,
   21.4057,       496,
   21.4259,       531,
   21.4462,       497,
   21.4664,       503,
   21.4866,       470,
   21.5068,       465,
    21.527,       484,
   21.5473,       524,
   21.5675,       484,
   21.5877,       557,
   21.6079,       518,
   21.6281,       496,
   21.6483,       533,
   21.6686,       538,
   21.6888,       532,
    21.709,       498,
   21.7292,       495,
   21.7494,       510,
   21.7697,       493,
   21.7899,       544,
   21.8101,       488,
   21.8303,       498,
   21.8505,       477,
   21.8708,       494,
    21.891,       493,
   21.9112,       499,
   21.9314,       478,
   21.9516,       516,
   21.9718,       493,
   21.9921,       527,
   22.0123,       566,
   22.0325,       512,
   22.0527,       521,
   22.0729,       498,
   22.0932,       521,
   22.1134,       536,
   22.1336,       507,
   22.1538,       498,
    22.174,       513,
   22.1943,       548,
   22.2145,       489,
   22.2347,       552,
   22.2549,       532,
   22.2751,       497,
   22.2953,       511,
   22.3156,       532,
   22.3358,       568,
    22.356,       479,
   22.3762,       487,
   22.3964,       503,
   22.4167,       478,
   22.4369,       549,
   22.4571,       528,
   22.4773,       544,
   22.4975,       526,
   22.5178,       525,
    22.538,       525,
   22.5582,       504,
   22.5784,       528,
   22.5986,       511,
   22.6188,       535,
   22.6391,       529,
   22.6593,       524,
   22.6795,       506,
   22.6997,       566,
   22.7199,       497,
   22.7402,       519,
   22.7604,       505,
   22.7806,       558,
   22.8008,       524,
    22.821,       531,
   22.8413,       499,
   22.8615,       511,
   22.8817,       532,
   22.9019,       548,
   22.9221,       519,
   22.9423,       560,
   22.9626,       530,
   22.9828,       529,
    23.003,       522,
   23.0232,       521,
   23.0434,       537,
   23.0637,       542,
   23.0839,       531,
   23.1041,       548,
   23.1243,       556,
   23.1445,       562,
   23.1648,       518,
    23.185,       589,
   23.2052,       525,
   23.2254,       568,
   23.2456,       562,
   23.2658,       529,
   23.2861,       559,
   23.3063,       530,
   23.3265,       528,
   23.3467,       604,
   23.3669,       531,
   23.3872,       539,
   23.4074,       510,
   23.4276,       528,
   23.4478,       552,
    23.468,       560,
   23.4883,       551,
   23.5085,       563,
   23.5287,       530,
   23.5489,       573,
   23.5691,       571,
   23.5893,       552,
   23.6096,       591,
   23.6298,       568,
     23.65,       551,
   23.6702,       547,
   23.6904,       515,
   23.7107,       578,
   23.7309,       545,
   23.7511,       523,
   23.7713,       531,
   23.7915,       557,
   23.8118,       543,
    23.832,       524,
   23.8522,       571,
   23.8724,       567,
   23.8926,       568,
   23.9128,       544,
   23.9331,       493,
   23.9533,       550,
   23.9735,       528,
   23.9937,       537,
   24.0139,       520,
   24.0342,       515,
   24.0544,       507,
   24.0746,       506,
   24.0948,       545,
    24.115,       527,
   24.1353,       525,
   24.1555,       501,
   24.1757,       497,
   24.1959,       541,
   24.2161,       524,
   24.2363,       497,
   24.2566,       489,
   24.2768,       511,
    24.297,       523,
   24.3172,       508,
   24.3374,       563,
   24.3577,       517,
   24.3779,       478,
   24.3981,       537,
   24.4183,       552,
   24.4385,       488,
   24.4588,       511,
    24.479,       488,
   24.4992,       536,
   24.5194,       499,
   24.5396,       527,
   24.5599,       516,
   24.5801,       469,
   24.6003,       492,
   24.6205,       461,
   24.6407,       485,
   24.6609,       510,
   24.6812,       528,
   24.7014,       498,
   24.7216,       520,
   24.7418,       548,
    24.762,       537,
   24.7823,       579,
   24.8025,       531,
   24.8227,       578,
   24.8429,       486,
   24.8631,       490,
   24.8834,       577,
   24.9036,       541,
   24.9238,       490,
    24.944,       520,
   24.9642,       510,
   24.9844,       524,
   25.0047,       523,
   25.0249,       521,
   25.0451,       510,
   25.0653,       482,
   25.0855,       485,
   25.1058,       548,
    25.126,       554,
   25.1462,       533,
   25.1664,       560,
   25.1866,       478,
   25.2069,       514,
   25.2271,       517,
   25.2473,       496,
   25.2675,       523,
   25.2877,       489,
   25.3079,       514,
   25.3282,       516,
   25.3484,       516,
   25.3686,       510,
   25.3888,       542,
    25.409,       544,
   25.4293,       556,
   25.4495,       545,
   25.4697,       500,
   25.4899,       568,
   25.5101,       567,
   25.5304,       587,
   25.5506,       570,
   25.5708,       549,
    25.591,       568,
   25.6112,       551,
   25.6314,       607,
   25.6517,       579,
   25.6719,       540,
   25.6921,       576,
   25.7123,       528,
   25.7325,       543,
   25.7528,       577,
    25.773,       566,
   25.7932,       541,
   25.8134,       546,
   25.8336,       581,
   25.8539,       529,
   25.8741,       549,
   25.8943,       553,
   25.9145,       525,
   25.9347,       543,
   25.9549,       598,
   25.9752,       535,
   25.9954,       546,
   26.0156,       477,
   26.0358,       528,
    26.056,       510,
   26.0763,       524,
   26.0965,       514,
   26.1167,       511,
   26.1369,       511,
   26.1571,       477,
   26.1774,       505,
   26.1976,       495,
   26.2178,       478,
    26.238,       486,
   26.2582,       480,
   26.2784,       512,
   26.2987,       506,
   26.3189,       500,
   26.3391,       489,
   26.3593,       513,
   26.3795,       465,
   26.3998,       517,
     26.42,       522,
   26.4402,       507,
   26.4604,       517,
   26.4806,       492,
   26.5009,       475,
   26.5211,       506,
   26.5413,       528,
   26.5615,       553,
   26.5817,       482,
   26.6019,       482,
   26.6222,       528,
   26.6424,       519,
   26.6626,       496,
   26.6828,       501,
    26.703,       528,
   26.7233,       503,
   26.7435,       498,
   26.7637,       548,
   26.7839,       518,
   26.8041,       544,
   26.8244,       511,
   26.8446,       484,
   26.8648,       513,
    26.885,       534,
   26.9052,       540,
   26.9254,       511,
   26.9457,       507,
   26.9659,       511,
   26.9861,       548,
   27.0063,       509,
   27.0265,       545,
   27.0468,       547,
    27.067,       507,
   27.0872,       537,
   27.1074,       568,
   27.1276,       561,
   27.1479,       523,
   27.1681,       594,
   27.1883,       559,
   27.2085,       620,
   27.2287,       659,
   27.2489,       596,
   27.2692,       681,
   27.2894,       741,
   27.3096,       762,
   27.3298,       839,
     27.35,       907,
   27.3703,       896,
   27.3905,       994,
   27.4107,       990,
   27.4309,      1023,
   27.4511,       925,
   27.4714,       956,
   27.4916,       909,
   27.5118,       840,
    27.532,       851,
   27.5522,       816,
   27.5724,       766,
   27.5927,       758,
   27.6129,       736,
   27.6331,       645,
   27.6533,       643,
   27.6735,       623,
   27.6938,       597,
    27.714,       603,
   27.7342,       586,
   27.7544,       571,
   27.7746,       593,
   27.7949,       574,
   27.8151,       518,
   27.8353,       531,
   27.8555,       566,
   27.8757,       513,
   27.8959,       496,
   27.9162,       485,
   27.9364,       516,
   27.9566,       525,
   27.9768,       512,
    27.997,       504,
   28.0173,       509,
   28.0375,       483,
   28.0577,       544,
   28.0779,       459,
   28.0981,       470,
   28.1184,       487,
   28.1386,       491,
   28.1588,       485,
    28.179,       516,
   28.1992,       491,
   28.2194,       494,
   28.2397,       467,
   28.2599,       477,
   28.2801,       529,
   28.3003,       493,
   28.3205,       500,
   28.3408,       492,
    28.361,       486,
   28.3812,       504,
   28.4014,       529,
   28.4216,       463,
   28.4419,       523,
   28.4621,       480,
   28.4823,       499,
   28.5025,       480,
   28.5227,       510,
   28.5429,       447,
   28.5632,       483,
   28.5834,       517,
   28.6036,       439,
   28.6238,       456,
    28.644,       457,
   28.6643,       478,
   28.6845,       445,
   28.7047,       473,
   28.7249,       505,
   28.7451,       494,
   28.7654,       481,
   28.7856,       462,
   28.8058,       491,
    28.826,       497,
   28.8462,       468,
   28.8664,       479,
   28.8867,       458,
   28.9069,       484,
   28.9271,       486,
   28.9473,       474,
   28.9675,       462,
   28.9878,       484,
    29.008,       473,
   29.0282,       454,
   29.0484,       482,
   29.0686,       524,
   29.0889,       475,
   29.1091,       515,
   29.1293,       479,
   29.1495,       487,
   29.1697,       488,
   29.1899,       495,
   29.2102,       443,
   29.2304,       455,
   29.2506,       445,
   29.2708,       514,
    29.291,       491,
   29.3113,       431,
   29.3315,       491,
   29.3517,       466,
   29.3719,       500,
   29.3921,       503,
   29.4124,       486,
   29.4326,       458,
   29.4528,       478,
    29.473,       430,
   29.4932,       454,
   29.5134,       491,
   29.5337,       448,
   29.5539,       493,
   29.5741,       442,
   29.5943,       470,
   29.6145,       466,
   29.6348,       476,
    29.655,       502,
   29.6752,       444,
   29.6954,       517,
   29.7156,       434,
   29.7359,       475,
   29.7561,       466,
   29.7763,       460,
   29.7965,       456,
   29.8167,       469,
   29.8369,       511,
   29.8572,       465,
   29.8774,       490,
   29.8976,       468,
   29.9178,       469,
    29.938,       488,
   29.9583,       493,
   29.9785,       478,
   29.9987,       503,
   30.0189,       512,
   30.0391,       468,
   30.0594,       493,
   30.0796,       438,
   30.0998,       502,
     30.12,       487,
   30.1402,       444,
   30.1604,       461,
   30.1807,       474,
   30.2009,       486,
   30.2211,       436,
   30.2413,       465,
   30.2615,       500,
   30.2818,       446,
    30.302,       476,
   30.3222,       473,
   30.3424,       450,
   30.3626,       472,
   30.3829,       480,
   30.4031,       457,
   30.4233,       481,
   30.4435,       529,
   30.4637,       480,
   30.4839,       489,
   30.5042,       505,
   30.5244,       548,
   30.5446,       548,
   30.5648,       555,
    30.585,       601,
   30.6053,       632,
   30.6255,       683,
   30.6457,       693,
   30.6659,       766,
   30.6861,       787,
   30.7064,       840,
   30.7266,       944,
   30.7468,       914,
    30.767,       920,
   30.7872,       888,
   30.8074,       852,
   30.8277,       784,
   30.8479,       738,
   30.8681,       667,
   30.8883,       624,
   30.9085,       600,
   30.9288,       565,
    30.949,       530,
   30.9692,       584,
   30.9894,       511,
   31.0096,       526,
   31.0299,       490,
   31.0501,       518,
   31.0703,       452,
   31.0905,       502,
   31.1107,       479,
   31.1309,       517,
   31.1512,       450,
   31.1714,       440,
   31.1916,       413,
   31.2118,       488,
    31.232,       504,
   31.2523,       480,
   31.2725,       472,
   31.2927,       461,
   31.3129,       484,
   31.3331,       485,
   31.3534,       476,
   31.3736,       463,
   31.3938,       471,
    31.414,       506,
   31.4342,       480,
   31.4544,       470,
   31.4747,       517,
   31.4949,       536,
   31.5151,       547,
   31.5353,       571,
   31.5555,       585,
   31.5758,       620,
    31.596,       569,
   31.6162,       577,
   31.6364,       538,
   31.6566,       574,
   31.6769,       567,
   31.6971,       576,
   31.7173,       586,
   31.7375,       604,
   31.7577,       571,
   31.7779,       583,
   31.7982,       628,
   31.8184,       638,
   31.8386,       616,
   31.8588,       637,
    31.879,       681,
   31.8993,       655,
   31.9195,       689,
   31.9397,       645,
   31.9599,       702,
   31.9801,       678,
   32.0004,       665,
   32.0206,       544,
   32.0408,       675,
    32.061,       639,
   32.0812,       641,
   32.1014,       675,
   32.1217,       636,
   32.1419,       604,
   32.1621,       647,
   32.1823,       580,
   32.2025,       578,
   32.2228,       576,
    32.243,       503,
   32.2632,       475,
   32.2834,       454,
   32.3036,       466,
   32.3239,       458,
   32.3441,       458,
   32.3643,       465,
   32.3845,       456,
   32.4047,       433,
   32.4249,       406,
   32.4452,       413,
   32.4654,       450,
   32.4856,       412,
   32.5058,       438,
    32.526,       429,
   32.5463,       412,
   32.5665,       395,
   32.5867,       429,
   32.6069,       390,
   32.6271,       465,
   32.6474,       435,
   32.6676,       430,
   32.6878,       431,
    32.708,       402,
   32.7282,       427,
   32.7484,       445,
   32.7687,       463,
   32.7889,       396,
   32.8091,       413,
   32.8293,       425,
   32.8495,       448,
   32.8698,       388,
     32.89,       431,
   32.9102,       400,
   32.9304,       405,
   32.9506,       416,
   32.9709,       419,
   32.9911,       385,
   33.0113,       411,
   33.0315,       386,
   33.0517,       421,
   33.0719,       445,
   33.0922,       396,
   33.1124,       394,
   33.1326,       410,
   33.1528,       464,
    33.173,       407,
   33.1933,       385,
   33.2135,       420,
   33.2337,       431,
   33.2539,       436,
   33.2741,       428,
   33.2944,       399,
   33.3146,       446,
   33.3348,       414,
    33.355,       439,
   33.3752,       412,
   33.3954,       436,
   33.4157,       448,
   33.4359,       440,
   33.4561,       462,
   33.4763,       423,
   33.4965,       441,
   33.5168,       467,
    33.537,       418,
   33.5572,       413,
   33.5774,       421,
   33.5976,       487,
   33.6179,       465,
   33.6381,       427,
   33.6583,       496,
   33.6785,       423,
   33.6987,       425,
   33.7189,       469,
   33.7392,       411,
   33.7594,       399,
   33.7796,       382,
   33.7998,       454,
     33.82,       478,
   33.8403,       406,
   33.8605,       435,
   33.8807,       437,
   33.9009,       475,
   33.9211,       386,
   33.9414,       433,
   33.9616,       423,
   33.9818,       442,
    34.002,       410,
   34.0222,       424,
   34.0424,       444,
   34.0627,       441,
   34.0829,       448,
   34.1031,       520,
   34.1233,       441,
   34.1435,       497,
   34.1638,       502,
    34.184,       499,
   34.2042,       476,
   34.2244,       514,
   34.2446,       551,
   34.2649,       519,
   34.2851,       544,
   34.3053,       513,
   34.3255,       571,
   34.3457,       542,
   34.3659,       540,
   34.3862,       562,
   34.4064,       587,
   34.4266,       606,
   34.4468,       578,
    34.467,       657,
   34.4873,       662,
   34.5075,       686,
   34.5277,       689,
   34.5479,       727,
   34.5681,       832,
   34.5884,       873,
   34.6086,       872,
   34.6288,       972,
    34.649,      1039,
   34.6692,      1128,
   34.6894,      1274,
   34.7097,      1392,
   34.7299,      1717,
   34.7501,      1913,
   34.7703,      2150,
   34.7905,      2491,
   34.8108,      2852,
    34.831,      3203,
   34.8512,      3690,
   34.8714,      4158,
   34.8916,      4403,
   34.9119,      4776,
   34.9321,      5057,
   34.9523,      5281,
   34.9725,      5275,
   34.9927,      5331,
   35.0129,      5256,
   35.0332,      5077,
   35.0534,      4725,
   35.0736,      4484,
   35.0938,      4322,
    35.114,      4005,
   35.1343,      3710,
   35.1545,      3454,
   35.1747,      3142,
   35.1949,      2948,
   35.2151,      2754,
   35.2354,      2478,
   35.2556,      2215,
   35.2758,      2038,
    35.296,      1878,
   35.3162,      1769,
   35.3365,      1609,
   35.3567,      1450,
   35.3769,      1397,
   35.3971,      1389,
   35.4173,      1235,
   35.4375,      1185,
   35.4578,      1146,
    35.478,      1074,
   35.4982,      1033,
   35.5184,       973,
   35.5386,       955,
   35.5589,       902,
   35.5791,       847,
   35.5993,       821,
   35.6195,       862,
   35.6397,       768,
     35.66,       766,
   35.6802,       739,
   35.7004,       735,
   35.7206,       732,
   35.7408,       750,
    35.761,       719,
   35.7813,       659,
   35.8015,       661,
   35.8217,       667,
   35.8419,       619,
   35.8621,       621,
   35.8824,       683,
   35.9026,       600,
   35.9228,       554,
    35.943,       615,
   35.9632,       576,
   35.9835,       571,
   36.0037,       594,
   36.0239,       525,
   36.0441,       576,
   36.0643,       576,
   36.0845,       532,
   36.1048,       539,
    36.125,       532,
   36.1452,       511,
   36.1654,       504,
   36.1856,       532,
   36.2059,       434,
   36.2261,       466,
   36.2463,       495,
   36.2665,       466,
   36.2867,       453,
    36.307,       486,
   36.3272,       442,
   36.3474,       467,
   36.3676,       472,
   36.3878,       471,
    36.408,       442,
   36.4283,       504,
   36.4485,       448,
   36.4687,       438,
   36.4889,       420,
   36.5091,       444,
   36.5294,       453,
   36.5496,       465,
   36.5698,       460,
     36.59,       424,
   36.6102,       449,
   36.6305,       419,
   36.6507,       440,
   36.6709,       511,
   36.6911,       426,
   36.7113,       411,
   36.7315,       445,
   36.7518,       418,
    36.772,       425,
   36.7922,       469,
   36.8124,       438,
   36.8326,       441,
   36.8529,       471,
   36.8731,       463,
   36.8933,       492,
   36.9135,       510,
   36.9337,       499,
    36.954,       451,
   36.9742,       510,
   36.9944,       559,
   37.0146,       553,
   37.0348,       628,
    37.055,       656,
   37.0753,       703,
   37.0955,       875,
   37.1157,      1017,
   37.1359,      1302,
   37.1561,      1439,
   37.1764,      1778,
   37.1966,      1982,
   37.2168,      2067,
    37.237,      1980,
   37.2572,      1908,
   37.2775,      1721,
   37.2977,      1505,
   37.3179,      1360,
   37.3381,      1110,
   37.3583,       911,
   37.3785,       810,
   37.3988,       735,
    37.419,       709,
   37.4392,       590,
   37.4594,       619,
   37.4796,       561,
   37.4999,       541,
   37.5201,       567,
   37.5403,       528,
   37.5605,       532,
   37.5807,       514,
    37.601,       501,
   37.6212,       476,
   37.6414,       513,
   37.6616,       521,
   37.6818,       485,
    37.702,       508,
   37.7223,       480,
   37.7425,       495,
   37.7627,       490,
   37.7829,       500,
   37.8031,       495,
   37.8234,       476,
   37.8436,       493,
   37.8638,       456,
    37.884,       464,
   37.9042,       430,
   37.9245,       424,
   37.9447,       405,
   37.9649,       393,
   37.9851,       411,
   38.0053,       369,
   38.0255,       425,
   38.0458,       395,
    38.066,       348,
   38.0862,       357,
   38.1064,       411,
   38.1266,       385,
   38.1469,       343,
   38.1671,       378,
   38.1873,       408,
   38.2075,       397,
   38.2277,       392,
    38.248,       403,
   38.2682,       397,
   38.2884,       411,
   38.3086,       398,
   38.3288,       457,
    38.349,       408,
   38.3693,       437,
   38.3895,       410,
   38.4097,       426,
   38.4299,       428,
   38.4501,       436,
   38.4704,       469,
   38.4906,       437,
   38.5108,       444,
    38.531,       434,
   38.5512,       433,
   38.5715,       462,
   38.5917,       434,
   38.6119,       479,
   38.6321,       450,
   38.6523,       510,
   38.6725,       487,
   38.6928,       473,
    38.713,       498,
   38.7332,       513,
   38.7534,       527,
   38.7736,       584,
   38.7939,       559,
   38.8141,       603,
   38.8343,       636,
   38.8545,       611,
   38.8747,       599,
    38.895,       555,
   38.9152,       561,
   38.9354,       540,
   38.9556,       544,
   38.9758,       490,
    38.996,       497,
   39.0163,       452,
   39.0365,       444,
   39.0567,       458,
   39.0769,       409,
   39.0971,       435,
   39.1174,       400,
   39.1376,       406,
   39.1578,       366,
    39.178,       383,
   39.1982,       406,
   39.2185,       398,
   39.2387,       375,
   39.2589,       364,
   39.2791,       342,
   39.2993,       360,
   39.3195,       343,
   39.3398,       368,
     39.36,       385,
   39.3802,       377,
   39.4004,       389,
   39.4206,       353,
   39.4409,       332,
   39.4611,       361,
   39.4813,       338,
   39.5015,       377,
   39.5217,       340,
    39.542,       364,
   39.5622,       352,
   39.5824,       377,
   39.6026,       343,
   39.6228,       348,
    39.643,       364,
   39.6633,       384,
   39.6835,       389,
   39.7037,       367,
   39.7239,       342,
   39.7441,       325,
   39.7644,       365,
   39.7846,       335,
   39.8048,       368,
    39.825,       359,
   39.8452,       364,
   39.8655,       331,
   39.8857,       348,
   39.9059,       353,
   39.9261,       367,
   39.9463,       357,
   39.9665,       351,
   39.9868,       358,
    40.007,       361,
   40.0272,       386,
   40.0474,       366,
   40.0676,       379,
   40.0879,       341,
   40.1081,       335,
   40.1283,       394,
   40.1485,       364,
   40.1687,       353,
    40.189,       365,
   40.2092,       339,
   40.2294,       382,
   40.2496,       367,
   40.2698,       362,
     40.29,       392,
   40.3103,       360,
   40.3305,       397,
   40.3507,       363,
   40.3709,       386,
   40.3911,       370,
   40.4114,       389,
   40.4316,       409,
   40.4518,       368,
    40.472,       353,
   40.4922,       325,
   40.5125,       378,
   40.5327,       379,
   40.5529,       365,
   40.5731,       346,
   40.5933,       377,
   40.6135,       402,
   40.6338,       336,
    40.654,       359,
   40.6742,       388,
   40.6944,       412,
   40.7146,       377,
   40.7349,       391,
   40.7551,       370,
   40.7753,       386,
   40.7955,       374,
   40.8157,       358,
    40.836,       370,
   40.8562,       373,
   40.8764,       408,
   40.8966,       387,
   40.9168,       420,
    40.937,       355,
   40.9573,       365,
   40.9775,       374,
   40.9977,       391,
   41.0179,       345,
   41.0381,       379,
   41.0584,       387,
   41.0786,       392,
   41.0988,       394,
    41.119,       365,
   41.1392,       395,
   41.1595,       377,
   41.1797,       380,
   41.1999,       394,
   41.2201,       349,
   41.2403,       366,
   41.2605,       403,
   41.2808,       373,
    41.301,       387,
   41.3212,       323,
   41.3414,       409,
   41.3616,       401,
   41.3819,       390,
   41.4021,       387,
   41.4223,       351,
   41.4425,       381,
   41.4627,       331,
    41.483,       365,
   41.5032,       345,
   41.5234,       382,
   41.5436,       365,
   41.5638,       356,
    41.584,       372,
   41.6043,       391,
   41.6245,       363,
   41.6447,       398,
   41.6649,       379,
   41.6851,       352,
   41.7054,       392,
   41.7256,       393,
   41.7458,       399,
    41.766,       385,
   41.7862,       369,
   41.8065,       376,
   41.8267,       388,
   41.8469,       377,
   41.8671,       377,
   41.8873,       358,
   41.9075,       398,
   41.9278,       375,
    41.948,       381,
   41.9682,       384,
   41.9884,       413,
   42.0086,       405,
   42.0289,       364,
   42.0491,       382,
   42.0693,       402,
   42.0895,       406,
   42.1097,       412,
     42.13,       436,
   42.1502,       444,
   42.1704,       445,
   42.1906,       419,
   42.2108,       455,
    42.231,       492,
   42.2513,       475,
   42.2715,       506,
   42.2917,       529,
   42.3119,       524,
   42.3321,       524,
   42.3524,       563,
   42.3726,       589,
   42.3928,       545,
    42.413,       577,
   42.4332,       608,
   42.4535,       662,
   42.4737,       573,
   42.4939,       611,
   42.5141,       609,
   42.5343,       594,
   42.5545,       680,
   42.5748,       700,
    42.595,       704,
   42.6152,       737,
   42.6354,       761,
   42.6556,       807,
   42.6759,       911,
   42.6961,       872,
   42.7163,       898,
   42.7365,       927,
   42.7567,      1004,
    42.777,       982,
   42.7972,      1030,
   42.8174,       964,
   42.8376,       930,
   42.8578,       954,
    42.878,       876,
   42.8983,       884,
   42.9185,       845,
   42.9387,       757,
   42.9589,       756,
   42.9791,       752,
   42.9994,       700,
   43.0196,       656,
   43.0398,       640,
     43.06,       587,
   43.0802,       595,
   43.1005,       571,
   43.1207,       525,
   43.1409,       573,
   43.1611,       468,
   43.1813,       513,
   43.2015,       501,
   43.2218,       468,
    43.242,       454,
   43.2622,       443,
   43.2824,       420,
   43.3026,       397,
   43.3229,       455,
   43.3431,       391,
   43.3633,       425,
   43.3835,       410,
   43.4037,       453,
    43.424,       422,
   43.4442,       411,
   43.4644,       393,
   43.4846,       418,
   43.5048,       440,
    43.525,       414,
   43.5453,       418,
   43.5655,       431,
   43.5857,       404,
   43.6059,       428,
   43.6261,       381,
   43.6464,       422,
   43.6666,       452,
   43.6868,       394,
    43.707,       397,
   43.7272,       434,
   43.7475,       387,
   43.7677,       430,
   43.7879,       403,
   43.8081,       412,
   43.8283,       402,
   43.8485,       416,
   43.8688,       402,
    43.889,       450,
   43.9092,       415,
   43.9294,       389,
   43.9496,       338,
   43.9699,       388,
   43.9901,       362,
   44.0103,       387,
   44.0305,       401,
   44.0507,       415,
    44.071,       372,
   44.0912,       384,
   44.1114,       341,
   44.1316,       402,
   44.1518,       400,
    44.172,       376,
   44.1923,       392,
   44.2125,       423,
   44.2327,       359,
   44.2529,       391,
   44.2731,       406,
   44.2934,       399,
   44.3136,       430,
   44.3338,       424,
    44.354,       458,
   44.3742,       467,
   44.3945,       460,
   44.4147,       514,
   44.4349,       500,
   44.4551,       539,
   44.4753,       539,
   44.4955,       499,
   44.5158,       511,
    44.536,       476,
   44.5562,       481,
   44.5764,       477,
   44.5966,       471,
   44.6169,       398,
   44.6371,       406,
   44.6573,       434,
   44.6775,       381,
   44.6977,       391,
    44.718,       376,
   44.7382,       355,
   44.7584,       370,
   44.7786,       393,
   44.7988,       374,
    44.819,       374,
   44.8393,       422,
   44.8595,       402,
   44.8797,       360,
   44.8999,       401,
   44.9201,       376,
   44.9404,       393,
   44.9606,       398,
   44.9808,       389,
    45.001,       404,
   45.0212,       429,
   45.0415,       475,
   45.0617,       453,
   45.0819,       485,
   45.1021,       463,
   45.1223,       457,
   45.1425,       436,
   45.1628,       476,
    45.183,       435,
   45.2032,       448,
   45.2234,       456,
   45.2436,       429,
   45.2639,       446,
   45.2841,       461,
   45.3043,       461,
   45.3245,       448,
   45.3447,       417,
    45.365,       476,
   45.3852,       450,
   45.4054,       416,
   45.4256,       409,
   45.4458,       381,
    45.466,       387,
   45.4863,       372,
   45.5065,       373,
   45.5267,       345,
   45.5469,       337,
   45.5671,       360,
   45.5874,       371,
   45.6076,       361,
   45.6278,       390,
    45.648,       354,
   45.6682,       331,
   45.6885,       340,
   45.7087,       309,
   45.7289,       340,
   45.7491,       340,
   45.7693,       341,
   45.7895,       357,
   45.8098,       345,
     45.83,       311,
   45.8502,       334,
   45.8704,       362,
   45.8906,       341,
   45.9109,       358,
   45.9311,       332,
   45.9513,       356,
   45.9715,       324,
   45.9917,       323,
    46.012,       346,
   46.0322,       352,
   46.0524,       341,
   46.0726,       365,
   46.0928,       386,
   46.1131,       303,
   46.1333,       316,
   46.1535,       334,
   46.1737,       306,
   46.1939,       350,
   46.2141,       365,
   46.2344,       369,
   46.2546,       333,
   46.2748,       374,
    46.295,       366,
   46.3152,       367,
   46.3355,       368,
   46.3557,       378,
   46.3759,       384,
   46.3961,       385,
   46.4163,       387,
   46.4366,       408,
   46.4568,       429,
    46.477,       414,
   46.4972,       413,
   46.5174,       482,
   46.5376,       442,
   46.5579,       477,
   46.5781,       477,
   46.5983,       494,
   46.6185,       481,
   46.6387,       542,
    46.659,       532,
   46.6792,       645,
   46.6994,       702,
   46.7196,       645,
   46.7398,       721,
   46.7601,       794,
   46.7803,       854,
   46.8005,       924,
   46.8207,       966,
   46.8409,      1040,
   46.8611,      1016,
   46.8814,      1098,
   46.9016,      1104,
   46.9218,      1171,
    46.942,      1167,
   46.9622,      1183,
   46.9825,      1121,
   47.0027,      1053,
   47.0229,      1033,
   47.0431,      1019,
   47.0633,       986,
   47.0836,       980,
   47.1038,       931,
    47.124,       920,
   47.1442,       883,
   47.1644,       833,
   47.1846,       759,
   47.2049,       742,
   47.2251,       749,
   47.2453,       658,
   47.2655,       643,
   47.2857,       653,
    47.306,       631,
   47.3262,       537,
   47.3464,       597,
   47.3666,       538,
   47.3868,       532,
   47.4071,       524,
   47.4273,       490,
   47.4475,       483,
   47.4677,       456,
   47.4879,       497,
   47.5081,       478,
   47.5284,       454,
   47.5486,       440,
   47.5688,       411,
    47.589,       460,
   47.6092,       408,
   47.6295,       421,
   47.6497,       412,
   47.6699,       405,
   47.6901,       414,
   47.7103,       388,
   47.7306,       371,
   47.7508,       418,
    47.771,       372,
   47.7912,       369,
   47.8114,       376,
   47.8316,       364,
   47.8519,       393,
   47.8721,       395,
   47.8923,       366,
   47.9125,       385,
   47.9327,       379,
    47.953,       389,
   47.9732,       366,
   47.9934,       381,
   48.0136,       384,
   48.0338,       388,
   48.0541,       332,
   48.0743,       357,
   48.0945,       371,
   48.1147,       392,
   48.1349,       352,
   48.1551,       388,
   48.1754,       383,
   48.1956,       384,
   48.2158,       359,
    48.236,       347,
   48.2562,       372,
   48.2765,       352,
   48.2967,       381,
   48.3169,       378,
   48.3371,       401,
   48.3573,       366,
   48.3776,       385,
   48.3978,       403,
    48.418,       384,
   48.4382,       363,
   48.4584,       407,
   48.4786,       412,
   48.4989,       353,
   48.5191,       347,
   48.5393,       345,
   48.5595,       343,
   48.5797,       339,
      48.6,       323,
   48.6202,       325,
   48.6404,       348,
   48.6606,       301,
   48.6808,       340,
   48.7011,       364,
   48.7213,       338,
   48.7415,       354,
   48.7617,       318,
   48.7819,       334,
   48.8021,       310,
   48.8224,       319,
   48.8426,       296,
   48.8628,       344,
    48.883,       288,
   48.9032,       307,
   48.9235,       359,
   48.9437,       308,
   48.9639,       288,
   48.9841,       349,
   49.0043,       314,
   49.0246,       346,
   49.0448,       323,
    49.065,       342,
   49.0852,       327,
   49.1054,       315,
   49.1256,       325,
   49.1459,       329,
   49.1661,       298,
   49.1863,       348,
   49.2065,       306,
   49.2267,       326,
    49.247,       311,
   49.2672,       314,
   49.2874,       289,
   49.3076,       333,
   49.3278,       291,
   49.3481,       349,
   49.3683,       322,
   49.3885,       294,
   49.4087,       296,
   49.4289,       296,
   49.4491,       301,
   49.4694,       334,
   49.4896,       330,
   49.5098,       345,
     49.53,       324,
   49.5502,       313,
   49.5705,       287,
   49.5907,       302,
   49.6109,       293,
   49.6311,       292,
   49.6513,       297,
   49.6716,       321,
   49.6918,       317,
    49.712,       259,
   49.7322,       291,
   49.7524,       303,
   49.7726,       328,
   49.7929,       312,
   49.8131,       284,
   49.8333,       306,
   49.8535,       286,
   49.8737,       299,
    49.894,       323,
   49.9142,       327,
   49.9344,       293,
   49.9546,       296,
   49.9748,       331,
   49.9951,       331,
   50.0153,       344,
   50.0355,       341,
   50.0557,       341,
   50.0759,       323,
   50.0961,       357,
   50.1164,       286,
   50.1366,       317,
   50.1568,       363,
    50.177,       325,
   50.1972,       332,
   50.2175,       330,
   50.2377,       330,
   50.2579,       322,
   50.2781,       338,
   50.2983,       342,
   50.3186,       373,
   50.3388,       317,
    50.359,       341,
   50.3792,       329,
   50.3994,       418,
   50.4196,       415,
   50.4399,       375,
   50.4601,       407,
   50.4803,       385,
   50.5005,       394,
   50.5207,       339,
    50.541,       417,
   50.5612,       395,
   50.5814,       383,
   50.6016,       365,
   50.6218,       337,
   50.6421,       364,
   50.6623,       345,
   50.6825,       343,
   50.7027,       303,
   50.7229,       322,
   50.7431,       355,
   50.7634,       342,
   50.7836,       343,
   50.8038,       338,
    50.824,       355,
   50.8442,       308,
   50.8645,       362,
   50.8847,       337,
   50.9049,       366,
   50.9251,       365,
   50.9453,       345,
   50.9656,       346,
   50.9858,       363,
    51.006,       399,
   51.0262,       380,
   51.0464,       400,
   51.0666,       378,
   51.0869,       388,
   51.1071,       449,
   51.1273,       475,
   51.1475,       489,
   51.1677,       477,
    51.188,       539,
   51.2082,       535,
   51.2284,       629,
   51.2486,       637,
   51.2688,       643,
   51.2891,       750,
   51.3093,       756,
   51.3295,       820,
   51.3497,       872,
   51.3699,       915,
   51.3901,       951,
   51.4104,       955,
   51.4306,       937,
   51.4508,       990,
    51.471,       991,
   51.4912,       966,
   51.5115,       880,
   51.5317,       898,
   51.5519,       902,
   51.5721,       877,
   51.5923,       826,
   51.6126,       817,
   51.6328,       788,
    51.653,       699,
   51.6732,       705,
   51.6934,       634,
   51.7136,       686,
   51.7339,       623,
   51.7541,       589,
   51.7743,       576,
   51.7945,       520,
   51.8147,       509,
    51.835,       504,
   51.8552,       453,
   51.8754,       463,
   51.8956,       470,
   51.9158,       464,
   51.9361,       391,
   51.9563,       429,
   51.9765,       458,
   51.9967,       406,
   52.0169,       373,
   52.0371,       388,
   52.0574,       388,
   52.0776,       386,
   52.0978,       402,
    52.118,       403,
   52.1382,       378,
   52.1585,       403,
   52.1787,       389,
   52.1989,       363,
   52.2191,       349,
   52.2393,       355,
   52.2596,       345,
   52.2798,       337,
      52.3,       340,
   52.3202,       350,
   52.3404,       325,
   52.3606,       324,
   52.3809,       320,
   52.4011,       301,
   52.4213,       344,
   52.4415,       336,
   52.4617,       353,
    52.482,       349,
   52.5022,       326,
   52.5224,       318,
   52.5426,       323,
   52.5628,       378,
   52.5831,       340,
   52.6033,       342,
   52.6235,       375,
   52.6437,       324,
   52.6639,       310,
   52.6841,       310,
   52.7044,       315,
   52.7246,       331,
   52.7448,       320,
    52.765,       319,
   52.7852,       311,
   52.8055,       329,
   52.8257,       283,
   52.8459,       313,
   52.8661,       321,
   52.8863,       320,
   52.9066,       312,
   52.9268,       299,
    52.947,       316,
   52.9672,       289,
   52.9874,       308,
   53.0076,       302,
   53.0279,       326,
   53.0481,       325,
   53.0683,       302,
   53.0885,       320,
   53.1087,       336,
    53.129,       345,
   53.1492,       329,
   53.1694,       323,
   53.1896,       361,
   53.2098,       356,
   53.2301,       364,
   53.2503,       341,
   53.2705,       366,
   53.2907,       405,
   53.3109,       392,
   53.3311,       443,
   53.3514,       493,
   53.3716,       557,
   53.3918,       534,
    53.412,       710,
   53.4322,       775,
   53.4525,       885,
   53.4727,       950,
   53.4929,       986,
   53.5131,       935,
   53.5333,       975,
   53.5536,       920,
   53.5738,       875,
    53.594,       869,
   53.6142,       808,
   53.6344,       723,
   53.6546,       674,
   53.6749,       596,
   53.6951,       542,
   53.7153,       524,
   53.7355,       505,
   53.7557,       458,
    53.776,       488,
   53.7962,       403,
   53.8164,       465,
   53.8366,       472,
   53.8568,       475,
   53.8771,       499,
   53.8973,       529,
   53.9175,       584,
   53.9377,       572,
   53.9579,       558,
   53.9781,       570,
   53.9984,       557,
   54.0186,       543,
   54.0388,       523,
    54.059,       529,
   54.0792,       509,
   54.0995,       484,
   54.1197,       434,
   54.1399,       418,
   54.1601,       397,
   54.1803,       364,
   54.2006,       356,
   54.2208,       320,
    54.241,       324,
   54.2612,       330,
   54.2814,       335,
   54.3016,       322,
   54.3219,       318,
   54.3421,       326,
   54.3623,       279,
   54.3825,       285,
   54.4027,       315,
    54.423,       309,
   54.4432,       298,
   54.4634,       313,
   54.4836,       296,
   54.5038,       317,
   54.5241,       256,
   54.5443,       281,
   54.5645,       283,
   54.5847,       314,
   54.6049,       310,
   54.6251,       293,
   54.6454,       275,
   54.6656,       302,
   54.6858,       313,
    54.706,       275,
   54.7262,       301,
   54.7465,       251,
   54.7667,       269,
   54.7869,       290,
   54.8071,       281,
   54.8273,       289,
   54.8476,       293,
   54.8678,       261,
    54.888,       279,
   54.9082,       283,
   54.9284,       297,
   54.9486,       268,
   54.9689,       309,
   54.9891,       302,
   55.0093,       253,
   55.0295,       268,
   55.0497,       253,
     55.07,       296,
   55.0902,       300,
   55.1104,       270,
   55.1306,       318,
   55.1508,       290,
   55.1711,       266,
   55.1913,       243,
   55.2115,       253,
   55.2317,       264,
   55.2519,       270,
   55.2721,       276,
   55.2924,       317,
   55.3126,       270,
   55.3328,       289,
    55.353,       302,
   55.3732,       301,
   55.3935,       292,
   55.4137,       278,
   55.4339,       281,
   55.4541,       307,
   55.4743,       271,
   55.4946,       288,
   55.5148,       255,
    55.535,       290,
   55.5552,       301,
   55.5754,       268,
   55.5956,       312,
   55.6159,       298,
   55.6361,       262,
   55.6563,       303,
   55.6765,       323,
   55.6967,       327,
    55.717,       296,
   55.7372,       285,
   55.7574,       305,
   55.7776,       316,
   55.7978,       309,
   55.8181,       328,
   55.8383,       337,
   55.8585,       334,
   55.8787,       310,
   55.8989,       347,
   55.9191,       347,
   55.9394,       348,
   55.9596,       371,
   55.9798,       401,
        56,       387,
   56.0202,       430,
   56.0405,       437,
   56.0607,       441,
   56.0809,       477,
   56.1011,       434,
   56.1213,       481,
   56.1416,       519,
   56.1618,       519,
    56.182,       533,
   56.2022,       538,
   56.2224,       546,
   56.2426,       562,
   56.2629,       573,
   56.2831,       590,
   56.3033,       586,
   56.3235,       616,
   56.3437,       603,
    56.364,       582,
   56.3842,       639,
   56.4044,       638,
   56.4246,       629,
   56.4448,       673,
   56.4651,       682,
   56.4853,       690,
   56.5055,       667,
   56.5257,       729,
   56.5459,       663,
   56.5661,       715,
   56.5864,       764,
   56.6066,       802,
   56.6268,       758,
    56.647,       758,
   56.6672,       819,
   56.6875,       871,
   56.7077,       917,
   56.7279,       879,
   56.7481,       900,
   56.7683,       913,
   56.7886,       916,
   56.8088,       910,
    56.829,       907,
   56.8492,       961,
   56.8694,       939,
   56.8897,       934,
   56.9099,       892,
   56.9301,       903,
   56.9503,       875,
   56.9705,       821,
   56.9907,       839,
    57.011,       885,
   57.0312,       856,
   57.0514,       805,
   57.0716,       830,
   57.0918,       792,
   57.1121,       720,
   57.1323,       724,
   57.1525,       743,
   57.1727,       661,
   57.1929,       626,
   57.2132,       677,
   57.2334,       630,
   57.2536,       577,
   57.2738,       572,
    57.294,       569,
   57.3142,       525,
   57.3345,       572,
   57.3547,       560,
   57.3749,       556,
   57.3951,       506,
   57.4153,       499,
   57.4356,       515,
   57.4558,       499,
    57.476,       516,
   57.4962,       509,
   57.5164,       491,
   57.5367,       488,
   57.5569,       519,
   57.5771,       544,
   57.5973,       516,
   57.6175,       595,
   57.6377,       569,
    57.658,       580,
   57.6782,       614,
   57.6984,       672,
   57.7186,       638,
   57.7388,       695,
   57.7591,       719,
   57.7793,       777,
   57.7995,       730,
   57.8197,       828,
   57.8399,       865,
   57.8602,       862,
   57.8804,       945,
   57.9006,       875,
   57.9208,       993,
    57.941,       945,
   57.9612,       908,
   57.9815,       941,
   58.0017,       872,
   58.0219,       873,
   58.0421,       872,
   58.0623,       877,
   58.0826,       915,
   58.1028,       836,
    58.123,       830,
   58.1432,       826,
   58.1634,       790,
   58.1837,       781,
   58.2039,       772,
   58.2241,       716,
   58.2443,       711,
   58.2645,       699,
   58.2847,       661,
    58.305,       671,
   58.3252,       647,
   58.3454,       597,
   58.3656,       555,
   58.3858,       579,
   58.4061,       534,
   58.4263,       501,
   58.4465,       552,
   58.4667,       530,
   58.4869,       530,
   58.5072,       485,
   58.5274,       423,
   58.5476,       460,
   58.5678,       431,
    58.588,       451,
   58.6082,       418,
   58.6285,       425,
   58.6487,       399,
   58.6689,       404,
   58.6891,       390,
   58.7093,       438,
   58.7296,       382,
   58.7498,       397,
     58.77,       405,
   58.7902,       403,
   58.8104,       371,
   58.8307,       366,
   58.8509,       337,
   58.8711,       333,
   58.8913,       346,
   58.9115,       348,
   58.9317,       366,
    58.952,       336,
   58.9722,       353,
   58.9924,       342,
   59.0126,       359,
   59.0328,       345,
   59.0531,       357,
   59.0733,       404,
   59.0935,       382,
   59.1137,       365,
   59.1339,       379,
   59.1542,       406,
   59.1744,       382,
   59.1946,       372,
   59.2148,       379,
    59.235,       371,
   59.2552,       374,
   59.2755,       385,
   59.2957,       363,
   59.3159,       338,
   59.3361,       305,
   59.3563,       331,
   59.3766,       345,
   59.3968,       333,
    59.417,       312,
   59.4372,       344,
   59.4574,       330,
   59.4777,       247,
   59.4979,       287,
   59.5181,       264,
   59.5383,       275,
   59.5585,       293,
   59.5787,       249,
    59.599,       282,
   59.6192,       248,
   59.6394,       289,
   59.6596,       307,
   59.6798,       296,
   59.7001,       252,
   59.7203,       256,
   59.7405,       268,
   59.7607,       226,
   59.7809,       281,
   59.8012,       287,
   59.8214,       249,
   59.8416,       237,
   59.8618,       264,
    59.882,       235,
   59.9022,       253,
   59.9225,       232,
   59.9427,       274,
   59.9629,       274,
   59.9831,       282,
   60.0033,       273,
   60.0236,       267,
   60.0438,       249,
    60.064,       247,
   60.0842,       247,
   60.1044,       233,
   60.1247,       235,
   60.1449,       248,
   60.1651,       241,
   60.1853,       242,
   60.2055,       243,
   60.2257,       241,
    60.246,       239,
   60.2662,       241,
   60.2864,       228,
   60.3066,       214,
   60.3268,       258,
   60.3471,       213,
   60.3673,       235,
   60.3875,       251,
   60.4077,       248,
   60.4279,       248,
   60.4482,       230,
   60.4684,       213,
   60.4886,       233,
   60.5088,       236,
    60.529,       255,
   60.5492,       233,
   60.5695,       246,
   60.5897,       239,
   60.6099,       241,
   60.6301,       233,
   60.6503,       225,
   60.6706,       219,
   60.6908,       215,
    60.711,       228,
   60.7312,       215,
   60.7514,       253,
   60.7717,       212,
   60.7919,       240,
   60.8121,       211,
   60.8323,       236,
   60.8525,       231,
   60.8727,       234,
    60.893,       238,
   60.9132,       242,
   60.9334,       244,
   60.9536,       232,
   60.9738,       210,
   60.9941,       226,
   61.0143,       211,
   61.0345,       218,
   61.0547,       219,
   61.0749,       230,
   61.0952,       220,
   61.1154,       235,
   61.1356,       242,
   61.1558,       231,
    61.176,       239,
   61.1962,       252,
   61.2165,       242,
   61.2367,       239,
   61.2569,       235,
   61.2771,       230,
   61.2973,       230,
   61.3176,       217,
   61.3378,       242,
    61.358,       212,
   61.3782,       241,
   61.3984,       263,
   61.4187,       224,
   61.4389,       242,
   61.4591,       250,
   61.4793,       232,
   61.4995,       235,
   61.5197,       242,
     61.54,       233,
   61.5602,       191,
   61.5804,       274,
   61.6006,       231,
   61.6208,       244,
   61.6411,       274,
   61.6613,       266,
   61.6815,       276,
   61.7017,       280,
   61.7219,       285,
   61.7422,       298,
   61.7624,       274,
   61.7826,       309,
   61.8028,       337,
    61.823,       331,
   61.8432,       364,
   61.8635,       343,
   61.8837,       328,
   61.9039,       340,
   61.9241,       339,
   61.9443,       344,
   61.9646,       324,
   61.9848,       317,
    62.005,       333,
   62.0252,       322,
   62.0454,       326,
   62.0657,       293,
   62.0859,       271,
   62.1061,       297,
   62.1263,       266,
   62.1465,       303,
   62.1667,       237,
    62.187,       281,
   62.2072,       263,
   62.2274,       220,
   62.2476,       282,
   62.2678,       260,
   62.2881,       252,
   62.3083,       257,
   62.3285,       284,
   62.3487,       247,
   62.3689,       275,
   62.3892,       289,
   62.4094,       268,
   62.4296,       296,
   62.4498,       259,
     62.47,       278,
   62.4902,       273,
   62.5105,       250,
   62.5307,       273,
   62.5509,       277,
   62.5711,       258,
   62.5913,       278,
   62.6116,       290,
   62.6318,       262,
    62.652,       258,
   62.6722,       298,
   62.6924,       243,
   62.7127,       254,
   62.7329,       269,
   62.7531,       239,
   62.7733,       232,
   62.7935,       226,
   62.8137,       250,
    62.834,       234,
   62.8542,       252,
   62.8744,       244,
   62.8946,       245,
   62.9148,       204,
   62.9351,       209,
   62.9553,       235,
   62.9755,       224,
   62.9957,       221,
   63.0159,       223,
   63.0362,       224,
   63.0564,       235,
   63.0766,       205,
   63.0968,       243,
    63.117,       211,
   63.1372,       219,
   63.1575,       188,
   63.1777,       203,
   63.1979,       213,
   63.2181,       224,
   63.2383,       210,
   63.2586,       210,
   63.2788,       205,
    63.299,       236,
   63.3192,       239,
   63.3394,       210,
   63.3597,       234,
   63.3799,       203,
   63.4001,       199,
   63.4203,       213,
   63.4405,       195,
   63.4607,       224,
    63.481,       222,
   63.5012,       259,
   63.5214,       229,
   63.5416,       222,
   63.5618,       207,
   63.5821,       243,
   63.6023,       232,
   63.6225,       264,
   63.6427,       233,
   63.6629,       267,
   63.6832,       234,
   63.7034,       233,
   63.7236,       203,
   63.7438,       239,
    63.764,       243,
   63.7842,       226,
   63.8045,       237,
   63.8247,       230,
   63.8449,       221,
   63.8651,       230,
   63.8853,       223,
   63.9056,       230,
   63.9258,       217,
    63.946,       228,
   63.9662,       238,
   63.9864,       222,
   64.0067,       199,
   64.0269,       218,
   64.0471,       218,
   64.0673,       227,
   64.0875,       217,
   64.1077,       209,
    64.128,       228,
   64.1482,       182,
   64.1684,       201,
   64.1886,       205,
   64.2088,       199,
   64.2291,       181,
   64.2493,       192,
   64.2695,       198,
   64.2897,       196,
   64.3099,       202,
   64.3302,       193,
   64.3504,       219,
   64.3706,       194,
   64.3908,       195,
    64.411,       209,
   64.4312,       232,
   64.4515,       185,
   64.4717,       205,
   64.4919,       187,
   64.5121,       203,
   64.5323,       183,
   64.5526,       199,
   64.5728,       211,
    64.593,       190,
   64.6132,       219,
   64.6334,       192,
   64.6537,       206,
   64.6739,       177,
   64.6941,       192,
   64.7143,       199,
   64.7345,       224,
   64.7547,       192,
    64.775,       213,
   64.7952,       202,
   64.8154,       186,
   64.8356,       189,
   64.8558,       189,
   64.8761,       209,
   64.8963,       209,
   64.9165,       194,
   64.9367,       182,
   64.9569,       203,
   64.9772,       179,
   64.9974,       190,
   65.0176,       206,
   65.0378,       207,
    65.058,       205,
   65.0782,       203,
   65.0985,       190,
   65.1187,       209,
   65.1389,       192,
   65.1591,       220,
   65.1793,       177,
   65.1996,       204,
   65.2198,       194,
     65.24,       219,
   65.2602,       223,
   65.2804,       211,
   65.3007,       173,
   65.3209,       237,
   65.3411,       199,
   65.3613,       200,
   65.3815,       195,
   65.4017,       212,
    65.422,       205,
   65.4422,       181,
   65.4624,       192,
   65.4826,       194,
   65.5028,       208,
   65.5231,       205,
   65.5433,       207,
   65.5635,       195,
   65.5837,       196,
   65.6039,       196,
   65.6242,       200,
   65.6444,       171,
   65.6646,       182,
   65.6848,       208,
    65.705,       213,
   65.7252,       191,
   65.7455,       194,
   65.7657,       195,
   65.7859,       208,
   65.8061,       184,
   65.8263,       189,
   65.8466,       168,
   65.8668,       220,
    65.887,       200,
   65.9072,       193,
   65.9274,       169,
   65.9477,       188,
   65.9679,       214,
   65.9881,       188,
   66.0083,       182,
   66.0285,       199,
   66.0487,       194,
    66.069,       209,
   66.0892,       178,
   66.1094,       191,
   66.1296,       213,
   66.1498,       198,
   66.1701,       193,
   66.1903,       194,
   66.2105,       200,
   66.2307,       193,
   66.2509,       197,
   66.2712,       183,
   66.2914,       196,
   66.3116,       217,
   66.3318,       213,
    66.352,       199,
   66.3722,       194,
   66.3925,       232,
   66.4127,       189,
   66.4329,       213,
   66.4531,       235,
   66.4733,       192,
   66.4936,       203,
   66.5138,       218,
    66.534,       211,
   66.5542,       210,
   66.5744,       205,
   66.5947,       194,
   66.6149,       246,
   66.6351,       240,
   66.6553,       220,
   66.6755,       227,
   66.6957,       244,
    66.716,       270,
   66.7362,       304,
   66.7564,       297,
   66.7766,       345,
   66.7968,       339,
   66.8171,       377,
   66.8373,       345,
   66.8575,       382,
   66.8777,       340,
   66.8979,       320,
   66.9182,       321,
   66.9384,       317,
   66.9586,       303,
   66.9788,       317,
    66.999,       270,
   67.0192,       269,
   67.0395,       270,
   67.0597,       266,
   67.0799,       240,
   67.1001,       238,
   67.1203,       246,
   67.1406,       218,
   67.1608,       229,
    67.181,       229,
   67.2012,       228,
   67.2214,       211,
   67.2417,       208,
   67.2619,       211,
   67.2821,       236,
   67.3023,       230,
   67.3225,       222,
   67.3427,       223,
    67.363,       221,
   67.3832,       226,
   67.4034,       195,
   67.4236,       196,
   67.4438,       205,
   67.4641,       211,
   67.4843,       220,
   67.5045,       238,
   67.5247,       219,
   67.5449,       211,
   67.5652,       228,
   67.5854,       235,
   67.6056,       257,
   67.6258,       259,
    67.646,       264,
   67.6663,       234,
   67.6865,       269,
   67.7067,       277,
   67.7269,       260,
   67.7471,       268,
   67.7673,       283,
   67.7876,       246,
   67.8078,       288,
    67.828,       264,
   67.8482,       300,
   67.8684,       309,
   67.8887,       293,
   67.9089,       294,
   67.9291,       271,
   67.9493,       293,
   67.9695,       305,
   67.9898,       288,
     68.01,       266,
   68.0302,       281,
   68.0504,       260,
   68.0706,       276,
   68.0908,       298,
   68.1111,       296,
   68.1313,       290,
   68.1515,       278,
   68.1717,       244,
   68.1919,       263,
   68.2122,       274,
   68.2324,       267,
   68.2526,       267,
   68.2728,       262,
    68.293,       295,
   68.3133,       274,
   68.3335,       237,
   68.3537,       262,
   68.3739,       255,
   68.3941,       255,
   68.4143,       252,
   68.4346,       263,
   68.4548,       268,
    68.475,       282,
   68.4952,       278,
   68.5154,       283,
   68.5357,       273,
   68.5559,       276,
   68.5761,       294,
   68.5963,       323,
   68.6165,       308,
   68.6368,       332,
    68.657,       333,
   68.6772,       341,
   68.6974,       384,
   68.7176,       400,
   68.7378,       387,
   68.7581,       374,
   68.7783,       395,
   68.7985,       441,
   68.8187,       418,
   68.8389,       432,
   68.8592,       417,
   68.8794,       417,
   68.8996,       429,
   68.9198,       452,
     68.94,       428,
   68.9603,       437,
   68.9805,       427,
   69.0007,       442,
   69.0209,       406,
   69.0411,       408,
   69.0613,       413,
   69.0816,       416,
   69.1018,       386,
    69.122,       350,
   69.1422,       402,
   69.1624,       367,
   69.1827,       397,
   69.2029,       355,
   69.2231,       352,
   69.2433,       348,
   69.2635,       315,
   69.2838,       318,
    69.304,       329,
   69.3242,       297,
   69.3444,       291,
   69.3646,       301,
   69.3848,       327,
   69.4051,       297,
   69.4253,       284,
   69.4455,       320,
   69.4657,       288,
   69.4859,       292,
   69.5062,       268,
   69.5264,       272,
   69.5466,       275,
   69.5668,       286,
    69.587,       250,
   69.6073,       258,
   69.6275,       250,
   69.6477,       238,
   69.6679,       230,
   69.6881,       256,
   69.7083,       277,
   69.7286,       241,
   69.7488,       234,
    69.769,       219,
   69.7892,       242,
   69.8094,       267,
   69.8297,       241,
   69.8499,       250,
   69.8701,       262,
   69.8903,       237,
   69.9105,       254,
   69.9308,       211,
    69.951,       238,
   69.9712,       219,
   69.9914,       231,
   70.0116,       215,
