;RAW4.00
[RawHeader]
Date=09/16/2019
EstimatedTotalTime=1611.89
FurtherDQLReading=0
HardwareIndicator=65519
MeasuredTotalTime=1611.89
MeasurementFlag=1
NumberOfMeasuredRanges=1
NumberOfRanges=1
Time=11:41:05

[VarInfo]
Type=USER
Flags=0
Value=Bruker Service

[VarInfo]
Type=SAMPLEID
Flags=0
Value=Commander Sample ID

[VarInfo]
Type=COMMENT
Flags=0
Value=

[VarInfo]
Type=UTF
Flags=0
Value=

[VarInfo]
Type=CREATOR
Flags=0
Value=BrmlToV4Converter

[VarInfo]
Type=CREATOR_VERSION
Flags=0
Value=7.3.0.0

[HardwareConfiguration]
AbsorptionFactor=9999
ActivateAbsorber=0
Alpha1=1.78897
Alpha2=1.79285
AlphaAverage=1.79026
AlphaRatio=0.5
Analyzer=0
Anode=Co
AntiScatteringSlit=9999
BeamOpticsFlags=0
Beta=1.62079
BetaRelativeIntensity=0
DeactivateAbsorber=0
DetectorSlit=9999
DivergenceSlit=1
GoniometerControl=0
GoniometerDiameter=282
GoniometerModel=256
GoniometerStage=7
Monochromator=0
NearSampleSlit=9999
PrimarySollerSlit=9999
SampleChanger=0
SecondSollerSlit=9999
SynchronousAxis=0
ThinFilmAttachment=9999
WaveUnit=A

[RangeHeader]
ActuallyUsedLambda=1.79026
AdditionalDetectorMask=257
DataRecordLength=4
DelayTime=0
DisplayPlaneNumber=0
EstimatedScanTime=1612
ExtraParametersMask=0
GeneratorCurrent=10
GeneratorVoltage=30
Increment=0.0202188
Increment3=0
NumberOfCompletedData=2969
NumberOfCounts=1
NumberOfDetectors=0
NumberOfDrives=2
NumberOfEncoderDrives=0
NumberOfMeasuredData=2969
NumberOfVaryingParameters=0
RangeStartTime=0
RotationSpeed=1
ScanMode=1
ScanType=Locked Coupled
SimulatedMeasConditions=0
SlitChangerIn=0
SmootingWidth=0
Start=10.0023
Steps=2969
SynchronousRotation=0
Time=82.5

[VarInfo]
Type=PSD_DISCRIM
Flags=0
Value=0.11;0.25

[PSD]
ActualTwoTheta=9999
FirstUsedChannel=0
FixedPSD=0
PSDOpening=5.00414
PSDType=5

[Drive]
DriveFlags=1
DriveName=2Theta
DriveNumber=2
DriveOffset=0
OffsetIndex=0
OscillationAmplitude=0
OscillationSpeed=0
StartPosition=10.0023

[Drive]
DriveFlags=1
DriveName=Theta
DriveNumber=1
DriveOffset=0
OffsetIndex=0
OscillationAmplitude=0
OscillationSpeed=0
StartPosition=5.00117

[Data]
     Angle,       PSD,
   10.0023,       490,
   10.0226,       489,
   10.0428,       508,
    10.063,       489,
   10.0832,       543,
   10.1034,       504,
   10.1237,       537,
   10.1439,       496,
   10.1641,       449,
   10.1843,       525,
   10.2045,       446,
   10.2247,       513,
    10.245,       473,
   10.2652,       483,
   10.2854,       506,
   10.3056,       502,
   10.3258,       499,
   10.3461,       469,
   10.3663,       495,
   10.3865,       487,
   10.4067,       449,
   10.4269,       445,
   10.4472,       450,
   10.4674,       465,
   10.4876,       488,
   10.5078,       473,
    10.528,       449,
   10.5482,       475,
   10.5685,       499,
   10.5887,       476,
   10.6089,       499,
   10.6291,       486,
   10.6493,       454,
   10.6696,       477,
   10.6898,       473,
     10.71,       487,
   10.7302,       488,
   10.7504,       459,
   10.7707,       463,
   10.7909,       419,
   10.8111,       445,
   10.8313,       468,
   10.8515,       464,
   10.8717,       459,
    10.892,       463,
   10.9122,       506,
   10.9324,       447,
   10.9526,       399,
   10.9728,       433,
   10.9931,       483,
   11.0133,       446,
   11.0335,       442,
   11.0537,       434,
   11.0739,       435,
   11.0942,       454,
   11.1144,       448,
   11.1346,       464,
   11.1548,       467,
    11.175,       452,
   11.1952,       446,
   11.2155,       409,
   11.2357,       448,
   11.2559,       442,
   11.2761,       432,
   11.2963,       468,
   11.3166,       429,
   11.3368,       476,
    11.357,       476,
   11.3772,       437,
   11.3974,       446,
   11.4177,       435,
   11.4379,       392,
   11.4581,       438,
   11.4783,       444,
   11.4985,       404,
   11.5187,       439,
    11.539,       448,
   11.5592,       428,
   11.5794,       481,
   11.5996,       411,
   11.6198,       436,
   11.6401,       455,
   11.6603,       409,
   11.6805,       436,
   11.7007,       454,
   11.7209,       439,
   11.7412,       405,
   11.7614,       421,
   11.7816,       424,
   11.8018,       420,
    11.822,       396,
   11.8422,       422,
   11.8625,       419,
   11.8827,       409,
   11.9029,       433,
   11.9231,       402,
   11.9433,       372,
   11.9636,       398,
   11.9838,       399,
    12.004,       444,
   12.0242,       445,
   12.0444,       422,
   12.0647,       405,
   12.0849,       446,
   12.1051,       419,
   12.1253,       412,
   12.1455,       444,
   12.1657,       392,
    12.186,       410,
   12.2062,       410,
   12.2264,       397,
   12.2466,       379,
   12.2668,       419,
   12.2871,       420,
   12.3073,       382,
   12.3275,       411,
   12.3477,       440,
   12.3679,       422,
   12.3882,       394,
   12.4084,       408,
   12.4286,       390,
   12.4488,       401,
    12.469,       374,
   12.4892,       419,
   12.5095,       380,
   12.5297,       384,
   12.5499,       419,
   12.5701,       376,
   12.5903,       352,
   12.6106,       356,
   12.6308,       386,
    12.651,       387,
   12.6712,       369,
   12.6914,       366,
   12.7117,       370,
   12.7319,       432,
   12.7521,       384,
   12.7723,       409,
   12.7925,       342,
   12.8127,       398,
    12.833,       390,
   12.8532,       395,
   12.8734,       403,
   12.8936,       422,
   12.9138,       419,
   12.9341,       410,
   12.9543,       362,
   12.9745,       342,
   12.9947,       388,
   13.0149,       378,
   13.0352,       364,
   13.0554,       377,
   13.0756,       399,
   13.0958,       415,
    13.116,       410,
   13.1362,       354,
   13.1565,       402,
   13.1767,       393,
   13.1969,       380,
   13.2171,       398,
   13.2373,       368,
   13.2576,       338,
   13.2778,       387,
    13.298,       392,
   13.3182,       387,
   13.3384,       360,
   13.3587,       383,
   13.3789,       374,
   13.3991,       348,
   13.4193,       395,
   13.4395,       394,
   13.4597,       386,
     13.48,       358,
   13.5002,       363,
   13.5204,       360,
   13.5406,       361,
   13.5608,       343,
   13.5811,       372,
   13.6013,       350,
   13.6215,       335,
   13.6417,       358,
   13.6619,       365,
   13.6822,       380,
   13.7024,       367,
   13.7226,       387,
   13.7428,       362,
    13.763,       372,
   13.7832,       344,
   13.8035,       372,
   13.8237,       352,
   13.8439,       331,
   13.8641,       327,
   13.8843,       350,
   13.9046,       356,
   13.9248,       380,
    13.945,       343,
   13.9652,       368,
   13.9854,       341,
   14.0057,       375,
   14.0259,       388,
   14.0461,       407,
   14.0663,       371,
   14.0865,       383,
   14.1068,       372,
    14.127,       374,
   14.1472,       362,
   14.1674,       360,
   14.1876,       366,
   14.2078,       348,
   14.2281,       370,
   14.2483,       410,
   14.2685,       364,
   14.2887,       321,
   14.3089,       344,
   14.3292,       358,
   14.3494,       333,
   14.3696,       386,
   14.3898,       355,
     14.41,       343,
   14.4303,       356,
   14.4505,       327,
   14.4707,       359,
   14.4909,       356,
   14.5111,       320,
   14.5313,       320,
   14.5516,       367,
   14.5718,       352,
    14.592,       354,
   14.6122,       332,
   14.6324,       360,
   14.6527,       367,
   14.6729,       355,
   14.6931,       348,
   14.7133,       336,
   14.7335,       352,
   14.7538,       330,
    14.774,       346,
   14.7942,       325,
   14.8144,       330,
   14.8346,       369,
   14.8548,       366,
   14.8751,       318,
   14.8953,       348,
   14.9155,       334,
   14.9357,       352,
   14.9559,       287,
   14.9762,       313,
   14.9964,       352,
   15.0166,       355,
   15.0368,       336,
    15.057,       345,
   15.0773,       342,
   15.0975,       350,
   15.1177,       339,
   15.1379,       358,
   15.1581,       320,
   15.1783,       329,
   15.1986,       307,
   15.2188,       400,
    15.239,       308,
   15.2592,       318,
   15.2794,       338,
   15.2997,       325,
   15.3199,       322,
   15.3401,       344,
   15.3603,       336,
   15.3805,       325,
   15.4008,       361,
    15.421,       367,
   15.4412,       338,
   15.4614,       332,
   15.4816,       333,
   15.5018,       329,
   15.5221,       306,
   15.5423,       334,
   15.5625,       335,
   15.5827,       361,
   15.6029,       308,
   15.6232,       339,
   15.6434,       291,
   15.6636,       335,
   15.6838,       320,
    15.704,       283,
   15.7243,       317,
   15.7445,       331,
   15.7647,       329,
   15.7849,       312,
   15.8051,       306,
   15.8253,       331,
   15.8456,       312,
   15.8658,       326,
    15.886,       324,
   15.9062,       305,
   15.9264,       321,
   15.9467,       324,
   15.9669,       330,
   15.9871,       334,
   16.0073,       324,
   16.0275,       326,
   16.0478,       282,
    16.068,       331,
   16.0882,       298,
   16.1084,       334,
   16.1286,       323,
   16.1488,       358,
   16.1691,       333,
   16.1893,       304,
   16.2095,       293,
   16.2297,       337,
   16.2499,       306,
   16.2702,       320,
   16.2904,       290,
   16.3106,       287,
   16.3308,       287,
    16.351,       363,
   16.3713,       318,
   16.3915,       356,
   16.4117,       307,
   16.4319,       284,
   16.4521,       344,
   16.4723,       348,
   16.4926,       292,
   16.5128,       288,
    16.533,       327,
   16.5532,       291,
   16.5734,       315,
   16.5937,       324,
   16.6139,       327,
   16.6341,       318,
   16.6543,       291,
   16.6745,       292,
   16.6948,       295,
    16.715,       326,
   16.7352,       316,
   16.7554,       302,
   16.7756,       290,
   16.7958,       274,
   16.8161,       313,
   16.8363,       315,
   16.8565,       305,
   16.8767,       337,
   16.8969,       301,
   16.9172,       329,
   16.9374,       295,
   16.9576,       288,
   16.9778,       291,
    16.998,       305,
   17.0183,       324,
   17.0385,       293,
   17.0587,       316,
   17.0789,       279,
   17.0991,       285,
   17.1193,       297,
   17.1396,       287,
   17.1598,       305,
     17.18,       299,
   17.2002,       262,
   17.2204,       278,
   17.2407,       290,
   17.2609,       313,
   17.2811,       281,
   17.3013,       297,
   17.3215,       304,
   17.3418,       284,
    17.362,       298,
   17.3822,       288,
   17.4024,       273,
   17.4226,       296,
   17.4428,       302,
   17.4631,       283,
   17.4833,       263,
   17.5035,       280,
   17.5237,       282,
   17.5439,       283,
   17.5642,       288,
   17.5844,       307,
   17.6046,       279,
   17.6248,       313,
    17.645,       310,
   17.6653,       264,
   17.6855,       309,
   17.7057,       261,
   17.7259,       283,
   17.7461,       312,
   17.7663,       322,
   17.7866,       310,
   17.8068,       309,
    17.827,       295,
   17.8472,       259,
   17.8674,       246,
   17.8877,       297,
   17.9079,       277,
   17.9281,       275,
   17.9483,       261,
   17.9685,       302,
   17.9888,       307,
    18.009,       293,
   18.0292,       286,
   18.0494,       268,
   18.0696,       283,
   18.0898,       262,
   18.1101,       283,
   18.1303,       281,
   18.1505,       291,
   18.1707,       304,
   18.1909,       306,
   18.2112,       302,
   18.2314,       274,
   18.2516,       294,
   18.2718,       331,
    18.292,       250,
   18.3123,       262,
   18.3325,       274,
   18.3527,       282,
   18.3729,       297,
   18.3931,       260,
   18.4133,       299,
   18.4336,       287,
   18.4538,       282,
    18.474,       267,
   18.4942,       288,
   18.5144,       267,
   18.5347,       268,
   18.5549,       290,
   18.5751,       279,
   18.5953,       294,
   18.6155,       282,
   18.6358,       265,
    18.656,       273,
   18.6762,       285,
   18.6964,       250,
   18.7166,       248,
   18.7368,       264,
   18.7571,       253,
   18.7773,       271,
   18.7975,       292,
   18.8177,       274,
   18.8379,       289,
   18.8582,       272,
   18.8784,       285,
   18.8986,       264,
   18.9188,       267,
    18.939,       289,
   18.9593,       276,
   18.9795,       280,
   18.9997,       264,
   19.0199,       249,
   19.0401,       257,
   19.0603,       267,
   19.0806,       290,
   19.1008,       260,
    19.121,       288,
   19.1412,       252,
   19.1614,       282,
   19.1817,       257,
   19.2019,       249,
   19.2221,       276,
   19.2423,       308,
   19.2625,       258,
   19.2828,       271,
    19.303,       264,
   19.3232,       293,
   19.3434,       277,
   19.3636,       310,
   19.3838,       257,
   19.4041,       289,
   19.4243,       262,
   19.4445,       260,
   19.4647,       261,
   19.4849,       264,
   19.5052,       262,
   19.5254,       252,
   19.5456,       275,
   19.5658,       242,
    19.586,       269,
   19.6063,       290,
   19.6265,       272,
   19.6467,       248,
   19.6669,       222,
   19.6871,       239,
   19.7073,       260,
   19.7276,       264,
   19.7478,       231,
    19.768,       276,
   19.7882,       266,
   19.8084,       242,
   19.8287,       233,
   19.8489,       252,
   19.8691,       251,
   19.8893,       254,
   19.9095,       222,
   19.9298,       272,
     19.95,       255,
   19.9702,       262,
   19.9904,       238,
   20.0106,       281,
   20.0308,       269,
   20.0511,       251,
   20.0713,       254,
   20.0915,       243,
   20.1117,       263,
   20.1319,       250,
   20.1522,       259,
   20.1724,       254,
   20.1926,       270,
   20.2128,       265,
    20.233,       245,
   20.2533,       239,
   20.2735,       251,
   20.2937,       245,
   20.3139,       267,
   20.3341,       238,
   20.3543,       248,
   20.3746,       259,
   20.3948,       227,
    20.415,       266,
   20.4352,       266,
   20.4554,       249,
   20.4757,       239,
   20.4959,       248,
   20.5161,       253,
   20.5363,       251,
   20.5565,       259,
   20.5768,       219,
    20.597,       258,
   20.6172,       211,
   20.6374,       260,
   20.6576,       241,
   20.6778,       251,
   20.6981,       228,
   20.7183,       251,
   20.7385,       277,
   20.7587,       237,
   20.7789,       219,
   20.7992,       268,
   20.8194,       239,
   20.8396,       238,
   20.8598,       254,
     20.88,       236,
   20.9003,       210,
   20.9205,       265,
   20.9407,       224,
   20.9609,       247,
   20.9811,       234,
   21.0013,       234,
   21.0216,       247,
   21.0418,       252,
    21.062,       260,
   21.0822,       262,
   21.1024,       253,
   21.1227,       243,
   21.1429,       240,
   21.1631,       257,
   21.1833,       261,
   21.2035,       221,
   21.2238,       280,
    21.244,       221,
   21.2642,       255,
   21.2844,       243,
   21.3046,       255,
   21.3248,       242,
   21.3451,       227,
   21.3653,       236,
   21.3855,       214,
   21.4057,       257,
   21.4259,       237,
   21.4462,       222,
   21.4664,       257,
   21.4866,       219,
   21.5068,       260,
    21.527,       249,
   21.5473,       240,
   21.5675,       224,
   21.5877,       235,
   21.6079,       240,
   21.6281,       250,
   21.6483,       216,
   21.6686,       228,
   21.6888,       236,
    21.709,       177,
   21.7292,       228,
   21.7494,       222,
   21.7697,       276,
   21.7899,       198,
   21.8101,       232,
   21.8303,       248,
   21.8505,       243,
   21.8708,       225,
    21.891,       205,
   21.9112,       260,
   21.9314,       232,
   21.9516,       209,
   21.9718,       225,
   21.9921,       213,
   22.0123,       209,
   22.0325,       202,
   22.0527,       211,
   22.0729,       253,
   22.0932,       226,
   22.1134,       221,
   22.1336,       216,
   22.1538,       240,
    22.174,       218,
   22.1943,       230,
   22.2145,       227,
   22.2347,       246,
   22.2549,       202,
   22.2751,       245,
   22.2953,       205,
   22.3156,       210,
   22.3358,       211,
    22.356,       255,
   22.3762,       216,
   22.3964,       233,
   22.4167,       243,
   22.4369,       241,
   22.4571,       242,
   22.4773,       222,
   22.4975,       238,
   22.5178,       227,
    22.538,       223,
   22.5582,       243,
   22.5784,       227,
   22.5986,       239,
   22.6188,       239,
   22.6391,       238,
   22.6593,       251,
   22.6795,       238,
   22.6997,       216,
   22.7199,       234,
   22.7402,       256,
   22.7604,       237,
   22.7806,       241,
   22.8008,       271,
    22.821,       231,
   22.8413,       273,
   22.8615,       242,
   22.8817,       224,
   22.9019,       219,
   22.9221,       225,
   22.9423,       242,
   22.9626,       237,
   22.9828,       223,
    23.003,       231,
   23.0232,       255,
   23.0434,       244,
   23.0637,       258,
   23.0839,       235,
   23.1041,       250,
   23.1243,       241,
   23.1445,       240,
   23.1648,       239,
    23.185,       226,
   23.2052,       228,
   23.2254,       229,
   23.2456,       243,
   23.2658,       247,
   23.2861,       222,
   23.3063,       244,
   23.3265,       255,
   23.3467,       232,
   23.3669,       261,
   23.3872,       240,
   23.4074,       211,
   23.4276,       198,
   23.4478,       242,
    23.468,       218,
   23.4883,       240,
   23.5085,       251,
   23.5287,       236,
   23.5489,       232,
   23.5691,       251,
   23.5893,       215,
   23.6096,       233,
   23.6298,       202,
     23.65,       234,
   23.6702,       217,
   23.6904,       241,
   23.7107,       219,
   23.7309,       200,
   23.7511,       236,
   23.7713,       221,
   23.7915,       243,
   23.8118,       255,
    23.832,       237,
   23.8522,       202,
   23.8724,       244,
   23.8926,       230,
   23.9128,       250,
   23.9331,       222,
   23.9533,       201,
   23.9735,       204,
   23.9937,       203,
   24.0139,       244,
   24.0342,       194,
   24.0544,       218,
   24.0746,       202,
   24.0948,       206,
    24.115,       208,
   24.1353,       236,
   24.1555,       234,
   24.1757,       225,
   24.1959,       234,
   24.2161,       245,
   24.2363,       214,
   24.2566,       199,
   24.2768,       219,
    24.297,       224,
   24.3172,       202,
   24.3374,       233,
   24.3577,       188,
   24.3779,       243,
   24.3981,       227,
   24.4183,       234,
   24.4385,       243,
   24.4588,       223,
    24.479,       210,
   24.4992,       238,
   24.5194,       218,
   24.5396,       208,
   24.5599,       235,
   24.5801,       212,
   24.6003,       203,
   24.6205,       216,
   24.6407,       247,
   24.6609,       222,
   24.6812,       217,
   24.7014,       228,
   24.7216,       218,
   24.7418,       205,
    24.762,       212,
   24.7823,       220,
   24.8025,       229,
   24.8227,       209,
   24.8429,       209,
   24.8631,       200,
   24.8834,       184,
   24.9036,       231,
   24.9238,       238,
    24.944,       220,
   24.9642,       215,
   24.9844,       216,
   25.0047,       209,
   25.0249,       225,
   25.0451,       216,
   25.0653,       211,
   25.0855,       178,
   25.1058,       208,
    25.126,       224,
   25.1462,       222,
   25.1664,       219,
   25.1866,       224,
   25.2069,       198,
   25.2271,       224,
   25.2473,       218,
   25.2675,       247,
   25.2877,       224,
   25.3079,       220,
   25.3282,       228,
   25.3484,       227,
   25.3686,       216,
   25.3888,       217,
    25.409,       222,
   25.4293,       205,
   25.4495,       232,
   25.4697,       243,
   25.4899,       236,
   25.5101,       210,
   25.5304,       233,
   25.5506,       268,
   25.5708,       297,
    25.591,       320,
   25.6112,       344,
   25.6314,       406,
   25.6517,       404,
   25.6719,       379,
   25.6921,       348,
   25.7123,       327,
   25.7325,       347,
   25.7528,       301,
    25.773,       257,
   25.7932,       241,
   25.8134,       237,
   25.8336,       230,
   25.8539,       223,
   25.8741,       235,
   25.8943,       198,
   25.9145,       199,
   25.9347,       231,
   25.9549,       211,
   25.9752,       213,
   25.9954,       235,
   26.0156,       203,
   26.0358,       226,
    26.056,       221,
   26.0763,       229,
   26.0965,       175,
   26.1167,       210,
   26.1369,       185,
   26.1571,       218,
   26.1774,       224,
   26.1976,       213,
   26.2178,       185,
    26.238,       163,
   26.2582,       209,
   26.2784,       225,
   26.2987,       214,
   26.3189,       168,
   26.3391,       208,
   26.3593,       179,
   26.3795,       201,
   26.3998,       202,
     26.42,       206,
   26.4402,       191,
   26.4604,       187,
   26.4806,       226,
   26.5009,       187,
   26.5211,       206,
   26.5413,       221,
   26.5615,       208,
   26.5817,       209,
   26.6019,       214,
   26.6222,       187,
   26.6424,       206,
   26.6626,       220,
   26.6828,       193,
    26.703,       186,
   26.7233,       214,
   26.7435,       216,
   26.7637,       186,
   26.7839,       192,
   26.8041,       211,
   26.8244,       231,
   26.8446,       211,
   26.8648,       203,
    26.885,       240,
   26.9052,       258,
   26.9254,       258,
   26.9457,       258,
   26.9659,       273,
   26.9861,       275,
   27.0063,       280,
   27.0265,       305,
   27.0468,       286,
    27.067,       296,
   27.0872,       253,
   27.1074,       280,
   27.1276,       260,
   27.1479,       251,
   27.1681,       258,
   27.1883,       231,
   27.2085,       243,
   27.2287,       241,
   27.2489,       211,
   27.2692,       213,
   27.2894,       224,
   27.3096,       239,
   27.3298,       263,
     27.35,       208,
   27.3703,       230,
   27.3905,       215,
   27.4107,       244,
   27.4309,       185,
   27.4511,       210,
   27.4714,       215,
   27.4916,       217,
   27.5118,       255,
    27.532,       206,
   27.5522,       240,
   27.5724,       218,
   27.5927,       210,
   27.6129,       216,
   27.6331,       244,
   27.6533,       214,
   27.6735,       201,
   27.6938,       200,
    27.714,       215,
   27.7342,       220,
   27.7544,       217,
   27.7746,       220,
   27.7949,       270,
   27.8151,       243,
   27.8353,       278,
   27.8555,       310,
   27.8757,       344,
   27.8959,       443,
   27.9162,       547,
   27.9364,       625,
   27.9566,       756,
   27.9768,       826,
    27.997,       771,
   28.0173,       740,
   28.0375,       694,
   28.0577,       576,
   28.0779,       573,
   28.0981,       448,
   28.1184,       415,
   28.1386,       393,
   28.1588,       360,
    28.179,       323,
   28.1992,       311,
   28.2194,       287,
   28.2397,       247,
   28.2599,       234,
   28.2801,       224,
   28.3003,       221,
   28.3205,       237,
   28.3408,       198,
    28.361,       222,
   28.3812,       205,
   28.4014,       212,
   28.4216,       211,
   28.4419,       186,
   28.4621,       192,
   28.4823,       188,
   28.5025,       205,
   28.5227,       184,
   28.5429,       199,
   28.5632,       189,
   28.5834,       180,
   28.6036,       200,
   28.6238,       179,
    28.644,       185,
   28.6643,       208,
   28.6845,       218,
   28.7047,       189,
   28.7249,       182,
   28.7451,       177,
   28.7654,       169,
   28.7856,       161,
   28.8058,       192,
    28.826,       195,
   28.8462,       195,
   28.8664,       168,
   28.8867,       183,
   28.9069,       176,
   28.9271,       190,
   28.9473,       173,
   28.9675,       187,
   28.9878,       200,
    29.008,       191,
   29.0282,       171,
   29.0484,       175,
   29.0686,       176,
   29.0889,       175,
   29.1091,       192,
   29.1293,       186,
   29.1495,       174,
   29.1697,       190,
   29.1899,       193,
   29.2102,       194,
   29.2304,       205,
   29.2506,       167,
   29.2708,       162,
    29.291,       180,
   29.3113,       172,
   29.3315,       170,
   29.3517,       160,
   29.3719,       180,
   29.3921,       166,
   29.4124,       174,
   29.4326,       167,
   29.4528,       182,
    29.473,       154,
   29.4932,       192,
   29.5134,       189,
   29.5337,       187,
   29.5539,       165,
   29.5741,       182,
   29.5943,       180,
   29.6145,       189,
   29.6348,       190,
    29.655,       166,
   29.6752,       178,
   29.6954,       200,
   29.7156,       186,
   29.7359,       177,
   29.7561,       168,
   29.7763,       165,
   29.7965,       186,
   29.8167,       158,
   29.8369,       168,
   29.8572,       184,
   29.8774,       180,
   29.8976,       174,
   29.9178,       184,
    29.938,       187,
   29.9583,       175,
   29.9785,       170,
   29.9987,       149,
   30.0189,       173,
   30.0391,       164,
   30.0594,       183,
   30.0796,       183,
   30.0998,       185,
     30.12,       195,
   30.1402,       191,
   30.1604,       170,
   30.1807,       195,
   30.2009,       180,
   30.2211,       185,
   30.2413,       167,
   30.2615,       200,
   30.2818,       154,
    30.302,       170,
   30.3222,       183,
   30.3424,       169,
   30.3626,       184,
   30.3829,       159,
   30.4031,       189,
   30.4233,       209,
   30.4435,       211,
   30.4637,       175,
   30.4839,       203,
   30.5042,       222,
   30.5244,       234,
   30.5446,       261,
   30.5648,       267,
    30.585,       291,
   30.6053,       298,
   30.6255,       311,
   30.6457,       291,
   30.6659,       273,
   30.6861,       280,
   30.7064,       247,
   30.7266,       228,
   30.7468,       206,
    30.767,       213,
   30.7872,       212,
   30.8074,       150,
   30.8277,       189,
   30.8479,       188,
   30.8681,       185,
   30.8883,       175,
   30.9085,       196,
   30.9288,       176,
    30.949,       189,
   30.9692,       168,
   30.9894,       173,
   31.0096,       178,
   31.0299,       173,
   31.0501,       159,
   31.0703,       214,
   31.0905,       206,
   31.1107,       187,
   31.1309,       196,
   31.1512,       189,
   31.1714,       205,
   31.1916,       193,
   31.2118,       168,
    31.232,       202,
   31.2523,       180,
   31.2725,       176,
   31.2927,       164,
   31.3129,       181,
   31.3331,       148,
   31.3534,       189,
   31.3736,       143,
   31.3938,       173,
    31.414,       164,
   31.4342,       160,
   31.4544,       189,
   31.4747,       190,
   31.4949,       165,
   31.5151,       183,
   31.5353,       199,
   31.5555,       188,
   31.5758,       173,
    31.596,       193,
   31.6162,       176,
   31.6364,       159,
   31.6566,       181,
   31.6769,       187,
   31.6971,       213,
   31.7173,       235,
   31.7375,       216,
   31.7577,       229,
   31.7779,       249,
   31.7982,       269,
   31.8184,       257,
   31.8386,       225,
   31.8588,       223,
    31.879,       193,
   31.8993,       186,
   31.9195,       196,
   31.9397,       183,
   31.9599,       196,
   31.9801,       191,
   32.0004,       191,
   32.0206,       166,
   32.0408,       169,
    32.061,       170,
   32.0812,       200,
   32.1014,       184,
   32.1217,       190,
   32.1419,       189,
   32.1621,       193,
   32.1823,       174,
   32.2025,       201,
   32.2228,       184,
    32.243,       159,
   32.2632,       183,
   32.2834,       194,
   32.3036,       202,
   32.3239,       217,
   32.3441,       211,
   32.3643,       181,
   32.3845,       207,
   32.4047,       255,
   32.4249,       254,
   32.4452,       293,
   32.4654,       318,
   32.4856,       363,
   32.5058,       317,
    32.526,       344,
   32.5463,       320,
   32.5665,       250,
   32.5867,       248,
   32.6069,       259,
   32.6271,       237,
   32.6474,       246,
   32.6676,       258,
   32.6878,       244,
    32.708,       227,
   32.7282,       224,
   32.7484,       204,
   32.7687,       208,
   32.7889,       204,
   32.8091,       206,
   32.8293,       185,
   32.8495,       196,
   32.8698,       201,
     32.89,       143,
   32.9102,       176,
   32.9304,       171,
   32.9506,       164,
   32.9709,       165,
   32.9911,       193,
   33.0113,       176,
   33.0315,       188,
   33.0517,       157,
   33.0719,       159,
   33.0922,       157,
   33.1124,       198,
   33.1326,       176,
   33.1528,       170,
    33.173,       164,
   33.1933,       166,
   33.2135,       179,
   33.2337,       156,
   33.2539,       185,
   33.2741,       138,
   33.2944,       203,
   33.3146,       182,
   33.3348,       186,
    33.355,       174,
   33.3752,       172,
   33.3954,       148,
   33.4157,       184,
   33.4359,       165,
   33.4561,       181,
   33.4763,       167,
   33.4965,       181,
   33.5168,       173,
    33.537,       177,
   33.5572,       173,
   33.5774,       170,
   33.5976,       168,
   33.6179,       182,
   33.6381,       185,
   33.6583,       183,
   33.6785,       182,
   33.6987,       161,
   33.7189,       182,
   33.7392,       207,
   33.7594,       172,
   33.7796,       182,
   33.7998,       191,
     33.82,       164,
   33.8403,       170,
   33.8605,       205,
   33.8807,       199,
   33.9009,       174,
   33.9211,       185,
   33.9414,       180,
   33.9616,       196,
   33.9818,       228,
    34.002,       213,
   34.0222,       207,
   34.0424,       225,
   34.0627,       245,
   34.0829,       217,
   34.1031,       248,
   34.1233,       250,
   34.1435,       259,
   34.1638,       242,
    34.184,       235,
   34.2042,       263,
   34.2244,       279,
   34.2446,       268,
   34.2649,       317,
   34.2851,       323,
   34.3053,       335,
   34.3255,       420,
   34.3457,       446,
   34.3659,       593,
   34.3862,       651,
   34.4064,       802,
   34.4266,       972,
   34.4468,      1014,
    34.467,      1168,
   34.4873,      1113,
   34.5075,      1162,
   34.5277,      1069,
   34.5479,       971,
   34.5681,       884,
   34.5884,       823,
   34.6086,       738,
   34.6288,       700,
    34.649,       623,
   34.6692,       645,
   34.6894,       543,
   34.7097,       517,
   34.7299,       497,
   34.7501,       483,
   34.7703,       468,
   34.7905,       467,
   34.8108,       447,
    34.831,       478,
   34.8512,       496,
   34.8714,       448,
   34.8916,       459,
   34.9119,       475,
   34.9321,       433,
   34.9523,       512,
   34.9725,       476,
   34.9927,       484,
   35.0129,       458,
   35.0332,       486,
   35.0534,       477,
   35.0736,       465,
   35.0938,       466,
    35.114,       450,
   35.1343,       429,
   35.1545,       437,
   35.1747,       455,
   35.1949,       440,
   35.2151,       449,
   35.2354,       439,
   35.2556,       468,
   35.2758,       471,
    35.296,       459,
   35.3162,       460,
   35.3365,       452,
   35.3567,       429,
   35.3769,       446,
   35.3971,       506,
   35.4173,       506,
   35.4375,       508,
   35.4578,       530,
    35.478,       575,
   35.4982,       556,
   35.5184,       576,
   35.5386,       587,
   35.5589,       604,
   35.5791,       670,
   35.5993,       667,
   35.6195,       692,
   35.6397,       698,
     35.66,       780,
   35.6802,       760,
   35.7004,       813,
   35.7206,       875,
   35.7408,      1004,
    35.761,      1200,
   35.7813,      1350,
   35.8015,      1644,
   35.8217,      1945,
   35.8419,      2665,
   35.8621,      3681,
   35.8824,      4975,
   35.9026,      6609,
   35.9228,      8369,
    35.943,      9440,
   35.9632,      9630,
   35.9835,      9555,
   36.0037,      9055,
   36.0239,      8472,
   36.0441,      7534,
   36.0643,      6560,
   36.0845,      5710,
   36.1048,      5046,
    36.125,      4551,
   36.1452,      4058,
   36.1654,      3819,
   36.1856,      3486,
   36.2059,      3119,
   36.2261,      2877,
   36.2463,      2554,
   36.2665,      2248,
   36.2867,      1846,
    36.307,      1598,
   36.3272,      1371,
   36.3474,      1245,
   36.3676,      1064,
   36.3878,       908,
    36.408,       809,
   36.4283,       722,
   36.4485,       699,
   36.4687,       629,
   36.4889,       606,
   36.5091,       510,
   36.5294,       543,
   36.5496,       553,
   36.5698,       474,
     36.59,       444,
   36.6102,       473,
   36.6305,       454,
   36.6507,       443,
   36.6709,       406,
   36.6911,       425,
   36.7113,       379,
   36.7315,       418,
   36.7518,       382,
    36.772,       369,
   36.7922,       317,
   36.8124,       380,
   36.8326,       355,
   36.8529,       333,
   36.8731,       303,
   36.8933,       311,
   36.9135,       314,
   36.9337,       323,
    36.954,       278,
   36.9742,       344,
   36.9944,       287,
   37.0146,       295,
   37.0348,       303,
    37.055,       370,
   37.0753,       325,
   37.0955,       327,
   37.1157,       304,
   37.1359,       260,
   37.1561,       280,
   37.1764,       247,
   37.1966,       250,
   37.2168,       238,
    37.237,       249,
   37.2572,       226,
   37.2775,       208,
   37.2977,       239,
   37.3179,       239,
   37.3381,       223,
   37.3583,       223,
   37.3785,       214,
   37.3988,       233,
    37.419,       217,
   37.4392,       218,
   37.4594,       187,
   37.4796,       192,
   37.4999,       214,
   37.5201,       212,
   37.5403,       211,
   37.5605,       200,
   37.5807,       217,
    37.601,       203,
   37.6212,       186,
   37.6414,       219,
   37.6616,       197,
   37.6818,       189,
    37.702,       190,
   37.7223,       230,
   37.7425,       180,
   37.7627,       188,
   37.7829,       181,
   37.8031,       175,
   37.8234,       180,
   37.8436,       188,
   37.8638,       159,
    37.884,       173,
   37.9042,       173,
   37.9245,       171,
   37.9447,       173,
   37.9649,       198,
   37.9851,       182,
   38.0053,       180,
   38.0255,       188,
   38.0458,       208,
    38.066,       189,
   38.0862,       186,
   38.1064,       178,
   38.1266,       169,
   38.1469,       163,
   38.1671,       176,
   38.1873,       188,
   38.2075,       188,
   38.2277,       186,
    38.248,       184,
   38.2682,       194,
   38.2884,       199,
   38.3086,       192,
   38.3288,       206,
    38.349,       189,
   38.3693,       202,
   38.3895,       195,
   38.4097,       186,
   38.4299,       199,
   38.4501,       205,
   38.4704,       198,
   38.4906,       208,
   38.5108,       202,
    38.531,       176,
   38.5512,       199,
   38.5715,       212,
   38.5917,       219,
   38.6119,       215,
   38.6321,       219,
   38.6523,       234,
   38.6725,       214,
   38.6928,       273,
    38.713,       281,
   38.7332,       260,
   38.7534,       296,
   38.7736,       339,
   38.7939,       347,
   38.8141,       377,
   38.8343,       417,
   38.8545,       458,
   38.8747,       502,
    38.895,       482,
   38.9152,       504,
   38.9354,       515,
   38.9556,       477,
   38.9758,       425,
    38.996,       433,
   39.0163,       376,
   39.0365,       382,
   39.0567,       357,
   39.0769,       339,
   39.0971,       326,
   39.1174,       315,
   39.1376,       318,
   39.1578,       317,
    39.178,       283,
   39.1982,       275,
   39.2185,       304,
   39.2387,       284,
   39.2589,       290,
   39.2791,       288,
   39.2993,       285,
   39.3195,       269,
   39.3398,       246,
     39.36,       251,
   39.3802,       240,
   39.4004,       221,
   39.4206,       230,
   39.4409,       244,
   39.4611,       232,
   39.4813,       205,
   39.5015,       206,
   39.5217,       200,
    39.542,       177,
   39.5622,       203,
   39.5824,       218,
   39.6026,       186,
   39.6228,       175,
    39.643,       166,
   39.6633,       200,
   39.6835,       175,
   39.7037,       183,
   39.7239,       179,
   39.7441,       176,
   39.7644,       160,
   39.7846,       146,
   39.8048,       167,
    39.825,       157,
   39.8452,       185,
   39.8655,       177,
   39.8857,       166,
   39.9059,       169,
   39.9261,       171,
   39.9463,       160,
   39.9665,       171,
   39.9868,       189,
    40.007,       164,
   40.0272,       167,
   40.0474,       166,
   40.0676,       173,
   40.0879,       175,
   40.1081,       162,
   40.1283,       174,
   40.1485,       156,
   40.1687,       165,
    40.189,       175,
   40.2092,       154,
   40.2294,       160,
   40.2496,       158,
   40.2698,       143,
     40.29,       159,
   40.3103,       164,
   40.3305,       152,
   40.3507,       145,
   40.3709,       161,
   40.3911,       151,
   40.4114,       165,
   40.4316,       175,
   40.4518,       185,
    40.472,       177,
   40.4922,       155,
   40.5125,       168,
   40.5327,       161,
   40.5529,       162,
   40.5731,       153,
   40.5933,       177,
   40.6135,       173,
   40.6338,       175,
    40.654,       179,
   40.6742,       187,
   40.6944,       178,
   40.7146,       172,
   40.7349,       187,
   40.7551,       173,
   40.7753,       177,
   40.7955,       193,
   40.8157,       192,
    40.836,       198,
   40.8562,       172,
   40.8764,       178,
   40.8966,       186,
   40.9168,       213,
    40.937,       241,
   40.9573,       272,
   40.9775,       302,
   40.9977,       340,
   41.0179,       373,
   41.0381,       337,
   41.0584,       418,
   41.0786,       401,
   41.0988,       410,
    41.119,       359,
   41.1392,       369,
   41.1595,       344,
   41.1797,       365,
   41.1999,       319,
   41.2201,       319,
   41.2403,       309,
   41.2605,       269,
   41.2808,       313,
    41.301,       284,
   41.3212,       300,
   41.3414,       273,
   41.3616,       261,
   41.3819,       264,
   41.4021,       237,
   41.4223,       239,
   41.4425,       256,
   41.4627,       222,
    41.483,       221,
   41.5032,       210,
   41.5234,       196,
   41.5436,       199,
   41.5638,       200,
    41.584,       182,
   41.6043,       204,
   41.6245,       206,
   41.6447,       213,
   41.6649,       185,
   41.6851,       198,
   41.7054,       201,
   41.7256,       181,
   41.7458,       152,
    41.766,       163,
   41.7862,       175,
   41.8065,       158,
   41.8267,       167,
   41.8469,       161,
   41.8671,       169,
   41.8873,       175,
   41.9075,       192,
   41.9278,       199,
    41.948,       197,
   41.9682,       176,
   41.9884,       181,
   42.0086,       191,
   42.0289,       189,
   42.0491,       184,
   42.0693,       181,
   42.0895,       222,
   42.1097,       217,
     42.13,       227,
   42.1502,       219,
   42.1704,       262,
   42.1906,       248,
   42.2108,       305,
    42.231,       284,
   42.2513,       334,
   42.2715,       281,
   42.2917,       299,
   42.3119,       303,
   42.3321,       284,
   42.3524,       270,
   42.3726,       233,
   42.3928,       222,
    42.413,       233,
   42.4332,       191,
   42.4535,       205,
   42.4737,       201,
   42.4939,       206,
   42.5141,       222,
   42.5343,       183,
   42.5545,       186,
   42.5748,       203,
    42.595,       178,
   42.6152,       219,
   42.6354,       204,
   42.6556,       191,
   42.6759,       186,
   42.6961,       184,
   42.7163,       198,
   42.7365,       201,
   42.7567,       186,
    42.777,       211,
   42.7972,       184,
   42.8174,       171,
   42.8376,       190,
   42.8578,       192,
    42.878,       189,
   42.8983,       192,
   42.9185,       184,
   42.9387,       184,
   42.9589,       171,
   42.9791,       189,
   42.9994,       179,
   43.0196,       205,
   43.0398,       161,
     43.06,       199,
   43.0802,       194,
   43.1005,       163,
   43.1207,       196,
   43.1409,       186,
   43.1611,       210,
   43.1813,       191,
   43.2015,       202,
   43.2218,       222,
    43.242,       225,
   43.2622,       236,
   43.2824,       230,
   43.3026,       234,
   43.3229,       216,
   43.3431,       222,
   43.3633,       217,
   43.3835,       244,
   43.4037,       243,
    43.424,       272,
   43.4442,       304,
   43.4644,       326,
   43.4846,       400,
   43.5048,       531,
    43.525,       569,
   43.5453,       726,
   43.5655,       816,
   43.5857,       790,
   43.6059,       772,
   43.6261,       779,
   43.6464,       758,
   43.6666,       739,
   43.6868,       651,
    43.707,       670,
   43.7272,       605,
   43.7475,       516,
   43.7677,       501,
   43.7879,       456,
   43.8081,       353,
   43.8283,       357,
   43.8485,       299,
   43.8688,       289,
    43.889,       260,
   43.9092,       250,
   43.9294,       225,
   43.9496,       197,
   43.9699,       200,
   43.9901,       233,
   44.0103,       193,
   44.0305,       176,
   44.0507,       189,
    44.071,       193,
   44.0912,       194,
   44.1114,       161,
   44.1316,       182,
   44.1518,       186,
    44.172,       173,
   44.1923,       187,
   44.2125,       175,
   44.2327,       168,
   44.2529,       190,
   44.2731,       196,
   44.2934,       171,
   44.3136,       202,
   44.3338,       201,
    44.354,       205,
   44.3742,       181,
   44.3945,       169,
   44.4147,       179,
   44.4349,       185,
   44.4551,       190,
   44.4753,       170,
   44.4955,       154,
   44.5158,       152,
    44.536,       145,
   44.5562,       159,
   44.5764,       150,
   44.5966,       136,
   44.6169,       163,
   44.6371,       174,
   44.6573,       159,
   44.6775,       148,
   44.6977,       140,
    44.718,       142,
   44.7382,       141,
   44.7584,       152,
   44.7786,       167,
   44.7988,       138,
    44.819,       169,
   44.8393,       146,
   44.8595,       149,
   44.8797,       148,
   44.8999,       154,
   44.9201,       144,
   44.9404,       198,
   44.9606,       160,
   44.9808,       176,
    45.001,       147,
   45.0212,       191,
   45.0415,       171,
   45.0617,       136,
   45.0819,       173,
   45.1021,       143,
   45.1223,       147,
   45.1425,       172,
   45.1628,       159,
    45.183,       162,
   45.2032,       158,
   45.2234,       136,
   45.2436,       167,
   45.2639,       164,
   45.2841,       148,
   45.3043,       170,
   45.3245,       135,
   45.3447,       158,
    45.365,       177,
   45.3852,       144,
   45.4054,       145,
   45.4256,       155,
   45.4458,       157,
    45.466,       144,
   45.4863,       137,
   45.5065,       127,
   45.5267,       128,
   45.5469,       129,
   45.5671,       142,
   45.5874,       152,
   45.6076,       146,
   45.6278,       135,
    45.648,       148,
   45.6682,       140,
   45.6885,       131,
   45.7087,       137,
   45.7289,       158,
   45.7491,       147,
   45.7693,       126,
   45.7895,       131,
   45.8098,       136,
     45.83,       129,
   45.8502,       140,
   45.8704,       137,
   45.8906,       148,
   45.9109,       148,
   45.9311,       132,
   45.9513,       137,
   45.9715,       150,
   45.9917,       145,
    46.012,       175,
   46.0322,       159,
   46.0524,       147,
   46.0726,       154,
   46.0928,       139,
   46.1131,       159,
   46.1333,       160,
   46.1535,       168,
   46.1737,       178,
   46.1939,       188,
   46.2141,       207,
   46.2344,       221,
   46.2546,       240,
   46.2748,       237,
    46.295,       251,
   46.3152,       281,
   46.3355,       275,
   46.3557,       248,
   46.3759,       266,
   46.3961,       243,
   46.4163,       233,
   46.4366,       266,
   46.4568,       221,
    46.477,       198,
   46.4972,       226,
   46.5174,       209,
   46.5376,       197,
   46.5579,       191,
   46.5781,       173,
   46.5983,       215,
   46.6185,       179,
   46.6387,       157,
    46.659,       184,
   46.6792,       174,
   46.6994,       187,
   46.7196,       195,
   46.7398,       171,
   46.7601,       152,
   46.7803,       195,
   46.8005,       181,
   46.8207,       176,
   46.8409,       207,
   46.8611,       169,
   46.8814,       168,
   46.9016,       179,
   46.9218,       193,
    46.942,       183,
   46.9622,       208,
   46.9825,       174,
   47.0027,       168,
   47.0229,       189,
   47.0431,       201,
   47.0633,       221,
   47.0836,       189,
   47.1038,       204,
    47.124,       175,
   47.1442,       185,
   47.1644,       184,
   47.1846,       221,
   47.2049,       183,
   47.2251,       197,
   47.2453,       175,
   47.2655,       201,
   47.2857,       197,
    47.306,       199,
   47.3262,       194,
   47.3464,       184,
   47.3666,       201,
   47.3868,       185,
   47.4071,       197,
   47.4273,       192,
   47.4475,       177,
   47.4677,       213,
   47.4879,       191,
   47.5081,       194,
   47.5284,       224,
   47.5486,       216,
   47.5688,       212,
    47.589,       230,
   47.6092,       235,
   47.6295,       233,
   47.6497,       235,
   47.6699,       256,
   47.6901,       302,
   47.7103,       238,
   47.7306,       296,
   47.7508,       293,
    47.771,       293,
   47.7912,       338,
   47.8114,       346,
   47.8316,       379,
   47.8519,       431,
   47.8721,       541,
   47.8923,       674,
   47.9125,       878,
   47.9327,      1144,
    47.953,      1403,
   47.9732,      1541,
   47.9934,      1686,
   48.0136,      1757,
   48.0338,      1743,
   48.0541,      1686,
   48.0743,      1492,
   48.0945,      1529,
   48.1147,      1433,
   48.1349,      1342,
   48.1551,      1200,
   48.1754,      1104,
   48.1956,      1062,
   48.2158,       967,
    48.236,       950,
   48.2562,       863,
   48.2765,       793,
   48.2967,       715,
   48.3169,       670,
   48.3371,       633,
   48.3573,       564,
   48.3776,       478,
   48.3978,       426,
    48.418,       430,
   48.4382,       387,
   48.4584,       346,
   48.4786,       308,
   48.4989,       331,
   48.5191,       278,
   48.5393,       275,
   48.5595,       251,
   48.5797,       250,
      48.6,       261,
   48.6202,       222,
   48.6404,       235,
   48.6606,       227,
   48.6808,       210,
   48.7011,       200,
   48.7213,       206,
   48.7415,       188,
   48.7617,       188,
   48.7819,       189,
   48.8021,       199,
   48.8224,       171,
   48.8426,       217,
   48.8628,       158,
    48.883,       220,
   48.9032,       190,
   48.9235,       184,
   48.9437,       174,
   48.9639,       159,
   48.9841,       168,
   49.0043,       169,
   49.0246,       161,
   49.0448,       176,
    49.065,       170,
   49.0852,       166,
   49.1054,       176,
   49.1256,       172,
   49.1459,       164,
   49.1661,       137,
   49.1863,       132,
   49.2065,       171,
   49.2267,       154,
    49.247,       161,
   49.2672,       164,
   49.2874,       164,
   49.3076,       132,
   49.3278,       144,
   49.3481,       165,
   49.3683,       156,
   49.3885,       149,
   49.4087,       142,
   49.4289,       150,
   49.4491,       132,
   49.4694,       137,
   49.4896,       144,
   49.5098,       141,
     49.53,       128,
   49.5502,       136,
   49.5705,       138,
   49.5907,       154,
   49.6109,       128,
   49.6311,       138,
   49.6513,       136,
   49.6716,       126,
   49.6918,       152,
    49.712,       166,
   49.7322,       122,
   49.7524,       139,
   49.7726,       121,
   49.7929,       136,
   49.8131,       135,
   49.8333,       147,
   49.8535,       128,
   49.8737,       158,
    49.894,       137,
   49.9142,       140,
   49.9344,       130,
   49.9546,       130,
   49.9748,       152,
   49.9951,       122,
   50.0153,       130,
   50.0355,       129,
   50.0557,       147,
   50.0759,       143,
   50.0961,       150,
   50.1164,       127,
   50.1366,       157,
   50.1568,       128,
    50.177,       151,
   50.1972,       171,
   50.2175,       162,
   50.2377,       159,
   50.2579,       149,
   50.2781,       173,
   50.2983,       153,
   50.3186,       182,
   50.3388,       149,
    50.359,       185,
   50.3792,       174,
   50.3994,       153,
   50.4196,       169,
   50.4399,       140,
   50.4601,       170,
   50.4803,       137,
   50.5005,       154,
   50.5207,       147,
    50.541,       141,
   50.5612,       164,
   50.5814,       153,
   50.6016,       156,
   50.6218,       158,
   50.6421,       184,
   50.6623,       165,
   50.6825,       214,
   50.7027,       192,
   50.7229,       213,
   50.7431,       216,
   50.7634,       223,
   50.7836,       231,
   50.8038,       253,
    50.824,       251,
   50.8442,       255,
   50.8645,       235,
   50.8847,       228,
   50.9049,       247,
   50.9251,       225,
   50.9453,       230,
   50.9656,       215,
   50.9858,       191,
    51.006,       213,
   51.0262,       210,
   51.0464,       234,
   51.0666,       235,
   51.0869,       250,
   51.1071,       239,
   51.1273,       258,
   51.1475,       269,
   51.1677,       289,
    51.188,       284,
   51.2082,       289,
   51.2284,       309,
   51.2486,       311,
   51.2688,       294,
   51.2891,       319,
   51.3093,       307,
   51.3295,       276,
   51.3497,       270,
   51.3699,       263,
   51.3901,       248,
   51.4104,       258,
   51.4306,       263,
   51.4508,       223,
    51.471,       254,
   51.4912,       222,
   51.5115,       215,
   51.5317,       212,
   51.5519,       213,
   51.5721,       228,
   51.5923,       210,
   51.6126,       184,
   51.6328,       196,
    51.653,       187,
   51.6732,       236,
   51.6934,       190,
   51.7136,       173,
   51.7339,       190,
   51.7541,       170,
   51.7743,       188,
   51.7945,       214,
   51.8147,       201,
    51.835,       161,
   51.8552,       167,
   51.8754,       158,
   51.8956,       145,
   51.9158,       190,
   51.9361,       213,
   51.9563,       186,
   51.9765,       186,
   51.9967,       190,
   52.0169,       190,
   52.0371,       154,
   52.0574,       201,
   52.0776,       169,
   52.0978,       205,
    52.118,       163,
   52.1382,       176,
   52.1585,       187,
   52.1787,       209,
   52.1989,       211,
   52.2191,       209,
   52.2393,       180,
   52.2596,       223,
   52.2798,       233,
      52.3,       224,
   52.3202,       234,
   52.3404,       246,
   52.3606,       234,
   52.3809,       295,
   52.4011,       315,
   52.4213,       419,
   52.4415,       481,
   52.4617,       588,
    52.482,       762,
   52.5022,       877,
   52.5224,       850,
   52.5426,       936,
   52.5628,       915,
   52.5831,       881,
   52.6033,       848,
   52.6235,       911,
   52.6437,       880,
   52.6639,       784,
   52.6841,       714,
   52.7044,       628,
   52.7246,       600,
   52.7448,       562,
    52.765,       525,
   52.7852,       452,
   52.8055,       466,
   52.8257,       426,
   52.8459,       409,
   52.8661,       362,
   52.8863,       380,
   52.9066,       309,
   52.9268,       292,
    52.947,       278,
   52.9672,       268,
   52.9874,       245,
   53.0076,       212,
   53.0279,       233,
   53.0481,       247,
   53.0683,       223,
   53.0885,       213,
   53.1087,       210,
    53.129,       208,
   53.1492,       197,
   53.1694,       174,
   53.1896,       201,
   53.2098,       185,
   53.2301,       174,
   53.2503,       185,
   53.2705,       178,
   53.2907,       192,
   53.3109,       178,
   53.3311,       192,
   53.3514,       175,
   53.3716,       203,
   53.3918,       172,
    53.412,       196,
   53.4322,       190,
   53.4525,       171,
   53.4727,       188,
   53.4929,       172,
   53.5131,       193,
   53.5333,       163,
   53.5536,       171,
   53.5738,       178,
    53.594,       168,
   53.6142,       136,
   53.6344,       175,
   53.6546,       174,
   53.6749,       170,
   53.6951,       150,
   53.7153,       191,
   53.7355,       171,
   53.7557,       192,
    53.776,       189,
   53.7962,       213,
   53.8164,       179,
   53.8366,       200,
   53.8568,       237,
   53.8771,       160,
   53.8973,       204,
   53.9175,       190,
   53.9377,       190,
   53.9579,       193,
   53.9781,       181,
   53.9984,       182,
   54.0186,       179,
   54.0388,       152,
    54.059,       134,
   54.0792,       147,
   54.0995,       155,
   54.1197,       139,
   54.1399,       157,
   54.1601,       142,
   54.1803,       163,
   54.2006,       142,
   54.2208,       141,
    54.241,       138,
   54.2612,       147,
   54.2814,       135,
   54.3016,       142,
   54.3219,       151,
   54.3421,       152,
   54.3623,       130,
   54.3825,       161,
   54.4027,       135,
    54.423,       147,
   54.4432,       125,
   54.4634,       143,
   54.4836,       140,
   54.5038,       150,
   54.5241,       123,
   54.5443,       113,
   54.5645,       148,
   54.5847,       134,
   54.6049,       152,
   54.6251,       134,
   54.6454,       145,
   54.6656,       148,
   54.6858,       153,
    54.706,       129,
   54.7262,       136,
   54.7465,       124,
   54.7667,       132,
   54.7869,       115,
   54.8071,       130,
   54.8273,       115,
   54.8476,       134,
   54.8678,       112,
    54.888,       122,
   54.9082,       141,
   54.9284,       129,
   54.9486,       143,
   54.9689,       124,
   54.9891,       135,
   55.0093,       152,
   55.0295,       145,
   55.0497,       134,
     55.07,       123,
   55.0902,       124,
   55.1104,       141,
   55.1306,       147,
   55.1508,       169,
   55.1711,       124,
   55.1913,       144,
   55.2115,       141,
   55.2317,       154,
   55.2519,       139,
   55.2721,       142,
   55.2924,       128,
   55.3126,       128,
   55.3328,       163,
    55.353,       139,
   55.3732,       141,
   55.3935,       157,
   55.4137,       144,
   55.4339,       158,
   55.4541,       173,
   55.4743,       177,
   55.4946,       181,
   55.5148,       159,
    55.535,       169,
   55.5552,       162,
   55.5754,       173,
   55.5956,       200,
   55.6159,       187,
   55.6361,       177,
   55.6563,       171,
   55.6765,       176,
   55.6967,       167,
    55.717,       193,
   55.7372,       169,
   55.7574,       184,
   55.7776,       197,
   55.7978,       170,
   55.8181,       180,
   55.8383,       174,
   55.8585,       181,
   55.8787,       196,
   55.8989,       195,
   55.9191,       197,
   55.9394,       216,
   55.9596,       224,
   55.9798,       208,
        56,       246,
   56.0202,       238,
   56.0405,       240,
   56.0607,       238,
   56.0809,       232,
   56.1011,       227,
   56.1213,       256,
   56.1416,       227,
   56.1618,       224,
    56.182,       223,
   56.2022,       205,
   56.2224,       225,
   56.2426,       236,
   56.2629,       205,
   56.2831,       203,
   56.3033,       179,
   56.3235,       195,
   56.3437,       187,
    56.364,       192,
   56.3842,       195,
   56.4044,       173,
   56.4246,       197,
   56.4448,       178,
   56.4651,       156,
   56.4853,       177,
   56.5055,       179,
   56.5257,       163,
   56.5459,       161,
   56.5661,       182,
   56.5864,       151,
   56.6066,       185,
   56.6268,       182,
    56.647,       181,
   56.6672,       182,
   56.6875,       190,
   56.7077,       200,
   56.7279,       195,
   56.7481,       200,
   56.7683,       211,
   56.7886,       201,
   56.8088,       207,
    56.829,       192,
   56.8492,       230,
   56.8694,       216,
   56.8897,       182,
   56.9099,       223,
   56.9301,       196,
   56.9503,       220,
   56.9705,       231,
   56.9907,       222,
    57.011,       219,
   57.0312,       238,
   57.0514,       208,
   57.0716,       198,
   57.0918,       230,
   57.1121,       226,
   57.1323,       215,
   57.1525,       235,
   57.1727,       254,
   57.1929,       254,
   57.2132,       270,
   57.2334,       274,
   57.2536,       271,
   57.2738,       274,
    57.294,       269,
   57.3142,       271,
   57.3345,       267,
   57.3547,       234,
   57.3749,       268,
   57.3951,       251,
   57.4153,       232,
   57.4356,       247,
   57.4558,       261,
    57.476,       262,
   57.4962,       239,
   57.5164,       236,
   57.5367,       269,
   57.5569,       285,
   57.5771,       308,
   57.5973,       307,
   57.6175,       350,
   57.6377,       361,
    57.658,       373,
   57.6782,       353,
   57.6984,       402,
   57.7186,       390,
   57.7388,       374,
   57.7591,       380,
   57.7793,       365,
   57.7995,       343,
   57.8197,       334,
   57.8399,       339,
   57.8602,       301,
   57.8804,       315,
   57.9006,       293,
   57.9208,       311,
    57.941,       283,
   57.9612,       290,
   57.9815,       299,
   58.0017,       256,
   58.0219,       251,
   58.0421,       258,
   58.0623,       250,
   58.0826,       270,
   58.1028,       252,
    58.123,       241,
   58.1432,       252,
   58.1634,       245,
   58.1837,       258,
   58.2039,       265,
   58.2241,       250,
   58.2443,       232,
   58.2645,       229,
   58.2847,       208,
    58.305,       252,
   58.3252,       233,
   58.3454,       240,
   58.3656,       229,
   58.3858,       206,
   58.4061,       228,
   58.4263,       208,
   58.4465,       236,
   58.4667,       198,
   58.4869,       219,
   58.5072,       224,
   58.5274,       231,
   58.5476,       234,
   58.5678,       216,
    58.588,       240,
   58.6082,       230,
   58.6285,       258,
   58.6487,       240,
   58.6689,       249,
   58.6891,       236,
   58.7093,       266,
   58.7296,       266,
   58.7498,       288,
     58.77,       300,
   58.7902,       309,
   58.8104,       289,
   58.8307,       346,
   58.8509,       397,
   58.8711,       426,
   58.8913,       441,
   58.9115,       509,
   58.9317,       601,
    58.952,       635,
   58.9722,       679,
   58.9924,       768,
   59.0126,       732,
   59.0328,       758,
   59.0531,       756,
   59.0733,       734,
   59.0935,       731,
   59.1137,       703,
   59.1339,       679,
   59.1542,       647,
   59.1744,       663,
   59.1946,       627,
   59.2148,       603,
    59.235,       509,
   59.2552,       543,
   59.2755,       529,
   59.2957,       473,
   59.3159,       500,
   59.3361,       470,
   59.3563,       505,
   59.3766,       518,
   59.3968,       532,
    59.417,       504,
   59.4372,       516,
   59.4574,       503,
   59.4777,       528,
   59.4979,       513,
   59.5181,       538,
   59.5383,       500,
   59.5585,       533,
   59.5787,       537,
    59.599,       576,
   59.6192,       565,
   59.6394,       609,
   59.6596,       704,
   59.6798,       701,
   59.7001,       853,
   59.7203,       924,
   59.7405,       959,
   59.7607,       968,
   59.7809,       938,
   59.8012,       971,
   59.8214,       965,
   59.8416,       948,
   59.8618,       869,
    59.882,       877,
   59.9022,       832,
   59.9225,       809,
   59.9427,       792,
   59.9629,       673,
   59.9831,       678,
   60.0033,       666,
   60.0236,       610,
   60.0438,       545,
    60.064,       552,
   60.0842,       575,
   60.1044,       552,
   60.1247,       546,
   60.1449,       522,
   60.1651,       509,
   60.1853,       525,
   60.2055,       469,
   60.2257,       475,
    60.246,       446,
   60.2662,       415,
   60.2864,       387,
   60.3066,       395,
   60.3268,       388,
   60.3471,       343,
   60.3673,       340,
   60.3875,       313,
   60.4077,       329,
   60.4279,       275,
   60.4482,       286,
   60.4684,       283,
   60.4886,       253,
   60.5088,       254,
    60.529,       254,
   60.5492,       257,
   60.5695,       236,
   60.5897,       247,
   60.6099,       219,
   60.6301,       223,
   60.6503,       212,
   60.6706,       191,
   60.6908,       216,
    60.711,       204,
   60.7312,       214,
   60.7514,       203,
   60.7717,       200,
   60.7919,       191,
   60.8121,       204,
   60.8323,       184,
   60.8525,       181,
   60.8727,       182,
    60.893,       164,
   60.9132,       141,
   60.9334,       149,
   60.9536,       136,
   60.9738,       186,
   60.9941,       159,
   61.0143,       163,
   61.0345,       146,
   61.0547,       152,
   61.0749,       166,
   61.0952,       136,
   61.1154,       150,
   61.1356,       152,
   61.1558,       157,
    61.176,       155,
   61.1962,       164,
   61.2165,       136,
   61.2367,       137,
   61.2569,       144,
   61.2771,       148,
   61.2973,       157,
   61.3176,       167,
   61.3378,       146,
    61.358,       139,
   61.3782,       163,
   61.3984,       143,
   61.4187,       156,
   61.4389,       155,
   61.4591,       136,
   61.4793,       161,
   61.4995,       163,
   61.5197,       129,
     61.54,       149,
   61.5602,       138,
   61.5804,       136,
   61.6006,       143,
   61.6208,       124,
   61.6411,       163,
   61.6613,       148,
   61.6815,       148,
   61.7017,       163,
   61.7219,       161,
   61.7422,       141,
   61.7624,       152,
   61.7826,       168,
   61.8028,       153,
    61.823,       144,
   61.8432,       128,
   61.8635,       146,
   61.8837,       124,
   61.9039,       137,
   61.9241,       143,
   61.9443,       150,
   61.9646,       129,
   61.9848,       123,
    62.005,       127,
   62.0252,       122,
   62.0454,       114,
   62.0657,       109,
   62.0859,       126,
   62.1061,       136,
   62.1263,       117,
   62.1465,       117,
   62.1667,       150,
    62.187,       157,
   62.2072,       138,
   62.2274,       132,
   62.2476,       121,
   62.2678,       131,
   62.2881,       128,
   62.3083,       122,
   62.3285,       109,
   62.3487,       124,
   62.3689,       114,
   62.3892,       133,
   62.4094,       147,
   62.4296,       128,
   62.4498,       123,
     62.47,       147,
   62.4902,       108,
   62.5105,       124,
   62.5307,       129,
   62.5509,       130,
   62.5711,       126,
   62.5913,       120,
   62.6116,       126,
   62.6318,       118,
    62.652,       144,
   62.6722,       104,
   62.6924,       112,
   62.7127,       123,
   62.7329,       109,
   62.7531,       120,
   62.7733,       117,
   62.7935,       112,
   62.8137,       129,
    62.834,       115,
   62.8542,       129,
   62.8744,        99,
   62.8946,       120,
   62.9148,       105,
   62.9351,       113,
   62.9553,       136,
   62.9755,        94,
   62.9957,       111,
   63.0159,       119,
   63.0362,       115,
   63.0564,       107,
   63.0766,       124,
   63.0968,       110,
    63.117,       111,
   63.1372,       114,
   63.1575,       117,
   63.1777,       108,
   63.1979,       114,
   63.2181,       120,
   63.2383,       121,
   63.2586,       121,
   63.2788,       123,
    63.299,       116,
   63.3192,       100,
   63.3394,        98,
   63.3597,       117,
   63.3799,       116,
   63.4001,       100,
   63.4203,       110,
   63.4405,       127,
   63.4607,       109,
    63.481,       115,
   63.5012,        99,
   63.5214,        99,
   63.5416,       107,
   63.5618,       117,
   63.5821,       128,
   63.6023,       107,
   63.6225,       126,
   63.6427,       134,
   63.6629,       119,
   63.6832,       117,
   63.7034,       123,
   63.7236,       117,
   63.7438,       105,
    63.764,       107,
   63.7842,       107,
   63.8045,       112,
   63.8247,       134,
   63.8449,       115,
   63.8651,       121,
   63.8853,        93,
   63.9056,       113,
   63.9258,        99,
    63.946,       124,
   63.9662,       116,
   63.9864,       118,
   64.0067,       110,
   64.0269,       113,
   64.0471,       122,
   64.0673,        99,
   64.0875,        94,
   64.1077,       127,
    64.128,       124,
   64.1482,       112,
   64.1684,       124,
   64.1886,       108,
   64.2088,       123,
   64.2291,       117,
   64.2493,        91,
   64.2695,       120,
   64.2897,       125,
   64.3099,       102,
   64.3302,       119,
   64.3504,       109,
   64.3706,       130,
   64.3908,        98,
    64.411,        99,
   64.4312,       127,
   64.4515,       120,
   64.4717,       107,
   64.4919,       118,
   64.5121,        98,
   64.5323,       113,
   64.5526,       119,
   64.5728,       101,
    64.593,       105,
   64.6132,        94,
   64.6334,       119,
   64.6537,        95,
   64.6739,       102,
   64.6941,        99,
   64.7143,       124,
   64.7345,       113,
   64.7547,       113,
    64.775,       113,
   64.7952,       117,
   64.8154,       106,
   64.8356,       123,
   64.8558,       130,
   64.8761,        97,
   64.8963,       111,
   64.9165,       121,
   64.9367,       116,
   64.9569,       100,
   64.9772,        81,
   64.9974,       106,
   65.0176,       105,
   65.0378,       109,
    65.058,       102,
   65.0782,        98,
   65.0985,       120,
   65.1187,       102,
   65.1389,       100,
   65.1591,        97,
   65.1793,       107,
   65.1996,       104,
   65.2198,       124,
     65.24,       108,
   65.2602,        96,
   65.2804,       126,
   65.3007,       115,
   65.3209,       116,
   65.3411,       116,
   65.3613,       111,
   65.3815,       107,
   65.4017,       114,
    65.422,       105,
   65.4422,        91,
   65.4624,        99,
   65.4826,       101,
   65.5028,        99,
   65.5231,        86,
   65.5433,       109,
   65.5635,        93,
   65.5837,        95,
   65.6039,       113,
   65.6242,       114,
   65.6444,       139,
   65.6646,       100,
   65.6848,        83,
    65.705,       104,
   65.7252,       105,
   65.7455,       105,
   65.7657,       111,
   65.7859,       101,
   65.8061,       111,
   65.8263,        94,
   65.8466,       104,
   65.8668,       101,
    65.887,        98,
   65.9072,       101,
   65.9274,       122,
   65.9477,       101,
   65.9679,       117,
   65.9881,       122,
   66.0083,       106,
   66.0285,       111,
   66.0487,        99,
    66.069,       119,
   66.0892,       102,
   66.1094,       117,
   66.1296,       125,
   66.1498,       125,
   66.1701,       103,
   66.1903,       115,
   66.2105,       114,
   66.2307,        99,
   66.2509,       103,
   66.2712,       115,
   66.2914,       117,
   66.3116,       113,
   66.3318,       113,
    66.352,       119,
   66.3722,       115,
   66.3925,       108,
   66.4127,       135,
   66.4329,       112,
   66.4531,       107,
   66.4733,       108,
   66.4936,        97,
   66.5138,       105,
    66.534,       115,
   66.5542,       105,
   66.5744,       126,
   66.5947,       107,
   66.6149,        96,
   66.6351,       102,
   66.6553,       102,
   66.6755,       101,
   66.6957,       115,
    66.716,       117,
   66.7362,       103,
   66.7564,       128,
   66.7766,       123,
   66.7968,       112,
   66.8171,       108,
   66.8373,       118,
   66.8575,       122,
   66.8777,       113,
   66.8979,       115,
   66.9182,       124,
   66.9384,       120,
   66.9586,       131,
   66.9788,       134,
    66.999,       136,
   67.0192,       124,
   67.0395,       132,
   67.0597,       131,
   67.0799,       131,
   67.1001,       139,
   67.1203,       119,
   67.1406,       121,
   67.1608,       129,
    67.181,       113,
   67.2012,       121,
   67.2214,       124,
   67.2417,       120,
   67.2619,       112,
   67.2821,       120,
   67.3023,       120,
   67.3225,       112,
   67.3427,       106,
    67.363,       120,
   67.3832,       104,
   67.4034,       114,
   67.4236,       103,
   67.4438,       111,
   67.4641,       116,
   67.4843,        88,
   67.5045,       101,
   67.5247,        98,
   67.5449,       115,
   67.5652,       109,
   67.5854,       112,
   67.6056,        95,
   67.6258,        88,
    67.646,       118,
   67.6663,       115,
   67.6865,       108,
   67.7067,       111,
   67.7269,       103,
   67.7471,       117,
   67.7673,       104,
   67.7876,       137,
   67.8078,       103,
    67.828,       123,
   67.8482,       126,
   67.8684,       123,
   67.8887,       120,
   67.9089,       114,
   67.9291,       133,
   67.9493,       125,
   67.9695,       122,
   67.9898,       138,
     68.01,       129,
   68.0302,       116,
   68.0504,       139,
   68.0706,       136,
   68.0908,       156,
   68.1111,       172,
   68.1313,       127,
   68.1515,       138,
   68.1717,       148,
   68.1919,       146,
   68.2122,       130,
   68.2324,       131,
   68.2526,       133,
   68.2728,       136,
    68.293,       138,
   68.3133,       137,
   68.3335,       138,
   68.3537,       136,
   68.3739,       121,
   68.3941,       140,
   68.4143,       117,
   68.4346,       120,
   68.4548,       109,
    68.475,       118,
   68.4952,       111,
   68.5154,       122,
   68.5357,       145,
   68.5559,       108,
   68.5761,       147,
   68.5963,       129,
   68.6165,       121,
   68.6368,       104,
    68.657,       118,
   68.6772,       124,
   68.6974,       117,
   68.7176,       118,
   68.7378,       115,
   68.7581,       142,
   68.7783,       105,
   68.7985,       121,
   68.8187,       122,
   68.8389,       134,
   68.8592,       114,
   68.8794,       107,
   68.8996,       118,
   68.9198,       123,
     68.94,       120,
   68.9603,       124,
   68.9805,       132,
   69.0007,       114,
   69.0209,       134,
   69.0411,       112,
   69.0613,       143,
   69.0816,       130,
   69.1018,       127,
    69.122,       125,
   69.1422,       115,
   69.1624,       136,
   69.1827,       125,
   69.2029,       127,
   69.2231,       115,
   69.2433,       124,
   69.2635,       157,
   69.2838,       172,
    69.304,       161,
   69.3242,       169,
   69.3444,       207,
   69.3646,       246,
   69.3848,       228,
   69.4051,       251,
   69.4253,       208,
   69.4455,       228,
   69.4657,       242,
   69.4859,       231,
   69.5062,       245,
   69.5264,       217,
   69.5466,       206,
   69.5668,       196,
    69.587,       222,
   69.6073,       219,
   69.6275,       191,
   69.6477,       189,
   69.6679,       193,
   69.6881,       188,
   69.7083,       187,
   69.7286,       166,
   69.7488,       160,
    69.769,       175,
   69.7892,       144,
   69.8094,       168,
   69.8297,       155,
   69.8499,       138,
   69.8701,       162,
   69.8903,       133,
   69.9105,       162,
   69.9308,       144,
    69.951,       154,
   69.9712,       130,
   69.9914,       131,
   70.0116,       149,
