;RAW4.00
[RawHeader]
Date=09/16/2019
EstimatedTotalTime=1611.6
FurtherDQLReading=0
HardwareIndicator=65519
MeasuredTotalTime=1611.6
MeasurementFlag=1
NumberOfMeasuredRanges=1
NumberOfRanges=1
Time=13:28:13

[VarInfo]
Type=USER
Flags=0
Value=Bruker Service

[VarInfo]
Type=SAMPLEID
Flags=0
Value=Commander Sample ID

[VarInfo]
Type=COMMENT
Flags=0
Value=

[VarInfo]
Type=UTF
Flags=0
Value=

[VarInfo]
Type=CREATOR
Flags=0
Value=BrmlToV4Converter

[VarInfo]
Type=CREATOR_VERSION
Flags=0
Value=7.3.0.0

[HardwareConfiguration]
AbsorptionFactor=9999
ActivateAbsorber=0
Alpha1=1.78897
Alpha2=1.79285
AlphaAverage=1.79026
AlphaRatio=0.5
Analyzer=0
Anode=Co
AntiScatteringSlit=9999
BeamOpticsFlags=0
Beta=1.62079
BetaRelativeIntensity=0
DeactivateAbsorber=0
DetectorSlit=9999
DivergenceSlit=1
GoniometerControl=0
GoniometerDiameter=282
GoniometerModel=256
GoniometerStage=7
Monochromator=0
NearSampleSlit=9999
PrimarySollerSlit=9999
SampleChanger=0
SecondSollerSlit=9999
SynchronousAxis=0
ThinFilmAttachment=9999
WaveUnit=A

[RangeHeader]
ActuallyUsedLambda=1.79026
AdditionalDetectorMask=257
DataRecordLength=4
DelayTime=0
DisplayPlaneNumber=0
EstimatedScanTime=1612
ExtraParametersMask=0
GeneratorCurrent=10
GeneratorVoltage=30
Increment=0.0202188
Increment3=0
NumberOfCompletedData=2969
NumberOfCounts=1
NumberOfDetectors=0
NumberOfDrives=2
NumberOfEncoderDrives=0
NumberOfMeasuredData=2969
NumberOfVaryingParameters=0
RangeStartTime=0
RotationSpeed=1
ScanMode=1
ScanType=Locked Coupled
SimulatedMeasConditions=0
SlitChangerIn=0
SmootingWidth=0
Start=10.0023
Steps=2969
SynchronousRotation=0
Time=82.5

[VarInfo]
Type=PSD_DISCRIM
Flags=0
Value=0.11;0.25

[PSD]
ActualTwoTheta=9999
FirstUsedChannel=0
FixedPSD=0
PSDOpening=5.00414
PSDType=5

[Drive]
DriveFlags=1
DriveName=2Theta
DriveNumber=2
DriveOffset=0
OffsetIndex=0
OscillationAmplitude=0
OscillationSpeed=0
StartPosition=10.0023

[Drive]
DriveFlags=1
DriveName=Theta
DriveNumber=1
DriveOffset=0
OffsetIndex=0
OscillationAmplitude=0
OscillationSpeed=0
StartPosition=5.00117

[Data]
     Angle,       PSD,
   10.0023,       698,
   10.0226,       700,
   10.0428,       677,
    10.063,       673,
   10.0832,       762,
   10.1034,       698,
   10.1237,       631,
   10.1439,       666,
   10.1641,       668,
   10.1843,       699,
   10.2045,       667,
   10.2247,       658,
    10.245,       716,
   10.2652,       662,
   10.2854,       680,
   10.3056,       672,
   10.3258,       746,
   10.3461,       707,
   10.3663,       696,
   10.3865,       634,
   10.4067,       610,
   10.4269,       635,
   10.4472,       689,
   10.4674,       702,
   10.4876,       652,
   10.5078,       652,
    10.528,       665,
   10.5482,       602,
   10.5685,       617,
   10.5887,       642,
   10.6089,       651,
   10.6291,       718,
   10.6493,       641,
   10.6696,       649,
   10.6898,       625,
     10.71,       611,
   10.7302,       626,
   10.7504,       698,
   10.7707,       664,
   10.7909,       627,
   10.8111,       638,
   10.8313,       648,
   10.8515,       655,
   10.8717,       634,
    10.892,       581,
   10.9122,       646,
   10.9324,       631,
   10.9526,       634,
   10.9728,       579,
   10.9931,       623,
   11.0133,       624,
   11.0335,       669,
   11.0537,       641,
   11.0739,       649,
   11.0942,       633,
   11.1144,       612,
   11.1346,       622,
   11.1548,       658,
    11.175,       681,
   11.1952,       607,
   11.2155,       604,
   11.2357,       607,
   11.2559,       614,
   11.2761,       612,
   11.2963,       598,
   11.3166,       585,
   11.3368,       610,
    11.357,       643,
   11.3772,       625,
   11.3974,       602,
   11.4177,       627,
   11.4379,       632,
   11.4581,       603,
   11.4783,       635,
   11.4985,       621,
   11.5187,       636,
    11.539,       617,
   11.5592,       591,
   11.5794,       636,
   11.5996,       607,
   11.6198,       618,
   11.6401,       638,
   11.6603,       638,
   11.6805,       619,
   11.7007,       628,
   11.7209,       600,
   11.7412,       599,
   11.7614,       580,
   11.7816,       591,
   11.8018,       615,
    11.822,       597,
   11.8422,       618,
   11.8625,       602,
   11.8827,       606,
   11.9029,       560,
   11.9231,       594,
   11.9433,       571,
   11.9636,       598,
   11.9838,       588,
    12.004,       659,
   12.0242,       604,
   12.0444,       604,
   12.0647,       609,
   12.0849,       580,
   12.1051,       615,
   12.1253,       612,
   12.1455,       573,
   12.1657,       597,
    12.186,       602,
   12.2062,       635,
   12.2264,       586,
   12.2466,       617,
   12.2668,       619,
   12.2871,       603,
   12.3073,       610,
   12.3275,       612,
   12.3477,       568,
   12.3679,       573,
   12.3882,       581,
   12.4084,       558,
   12.4286,       588,
   12.4488,       575,
    12.469,       599,
   12.4892,       561,
   12.5095,       617,
   12.5297,       565,
   12.5499,       604,
   12.5701,       591,
   12.5903,       569,
   12.6106,       561,
   12.6308,       535,
    12.651,       569,
   12.6712,       571,
   12.6914,       591,
   12.7117,       580,
   12.7319,       574,
   12.7521,       559,
   12.7723,       565,
   12.7925,       634,
   12.8127,       653,
    12.833,       526,
   12.8532,       552,
   12.8734,       595,
   12.8936,       575,
   12.9138,       581,
   12.9341,       568,
   12.9543,       585,
   12.9745,       566,
   12.9947,       566,
   13.0149,       568,
   13.0352,       525,
   13.0554,       547,
   13.0756,       524,
   13.0958,       574,
    13.116,       550,
   13.1362,       584,
   13.1565,       574,
   13.1767,       542,
   13.1969,       545,
   13.2171,       553,
   13.2373,       557,
   13.2576,       576,
   13.2778,       585,
    13.298,       579,
   13.3182,       599,
   13.3384,       571,
   13.3587,       591,
   13.3789,       557,
   13.3991,       603,
   13.4193,       626,
   13.4395,       668,
   13.4597,       684,
     13.48,       695,
   13.5002,       764,
   13.5204,       669,
   13.5406,       841,
   13.5608,       836,
   13.5811,       803,
   13.6013,       825,
   13.6215,       718,
   13.6417,       727,
   13.6619,       651,
   13.6822,       608,
   13.7024,       601,
   13.7226,       597,
   13.7428,       590,
    13.763,       586,
   13.7832,       526,
   13.8035,       555,
   13.8237,       579,
   13.8439,       549,
   13.8641,       535,
   13.8843,       512,
   13.9046,       568,
   13.9248,       549,
    13.945,       573,
   13.9652,       594,
   13.9854,       535,
   14.0057,       535,
   14.0259,       574,
   14.0461,       577,
   14.0663,       534,
   14.0865,       558,
   14.1068,       603,
    14.127,       528,
   14.1472,       515,
   14.1674,       495,
   14.1876,       542,
   14.2078,       527,
   14.2281,       507,
   14.2483,       594,
   14.2685,       556,
   14.2887,       522,
   14.3089,       493,
   14.3292,       589,
   14.3494,       537,
   14.3696,       583,
   14.3898,       577,
     14.41,       589,
   14.4303,       508,
   14.4505,       586,
   14.4707,       555,
   14.4909,       523,
   14.5111,       499,
   14.5313,       537,
   14.5516,       520,
   14.5718,       521,
    14.592,       561,
   14.6122,       566,
   14.6324,       530,
   14.6527,       536,
   14.6729,       518,
   14.6931,       537,
   14.7133,       518,
   14.7335,       513,
   14.7538,       517,
    14.774,       511,
   14.7942,       506,
   14.8144,       535,
   14.8346,       541,
   14.8548,       519,
   14.8751,       527,
   14.8953,       534,
   14.9155,       482,
   14.9357,       541,
   14.9559,       486,
   14.9762,       505,
   14.9964,       540,
   15.0166,       522,
   15.0368,       532,
    15.057,       494,
   15.0773,       575,
   15.0975,       552,
   15.1177,       492,
   15.1379,       520,
   15.1581,       451,
   15.1783,       515,
   15.1986,       543,
   15.2188,       483,
    15.239,       497,
   15.2592,       464,
   15.2794,       508,
   15.2997,       499,
   15.3199,       544,
   15.3401,       506,
   15.3603,       536,
   15.3805,       509,
   15.4008,       483,
    15.421,       504,
   15.4412,       500,
   15.4614,       508,
   15.4816,       521,
   15.5018,       548,
   15.5221,       480,
   15.5423,       521,
   15.5625,       518,
   15.5827,       505,
   15.6029,       527,
   15.6232,       533,
   15.6434,       524,
   15.6636,       451,
   15.6838,       479,
    15.704,       498,
   15.7243,       498,
   15.7445,       469,
   15.7647,       530,
   15.7849,       482,
   15.8051,       500,
   15.8253,       539,
   15.8456,       510,
   15.8658,       552,
    15.886,       472,
   15.9062,       501,
   15.9264,       491,
   15.9467,       476,
   15.9669,       481,
   15.9871,       483,
   16.0073,       514,
   16.0275,       533,
   16.0478,       504,
    16.068,       503,
   16.0882,       452,
   16.1084,       513,
   16.1286,       493,
   16.1488,       535,
   16.1691,       475,
   16.1893,       489,
   16.2095,       503,
   16.2297,       450,
   16.2499,       499,
   16.2702,       488,
   16.2904,       477,
   16.3106,       479,
   16.3308,       478,
    16.351,       459,
   16.3713,       488,
   16.3915,       508,
   16.4117,       520,
   16.4319,       494,
   16.4521,       462,
   16.4723,       499,
   16.4926,       502,
   16.5128,       495,
    16.533,       517,
   16.5532,       509,
   16.5734,       527,
   16.5937,       539,
   16.6139,       475,
   16.6341,       527,
   16.6543,       545,
   16.6745,       521,
   16.6948,       633,
    16.715,       671,
   16.7352,       589,
   16.7554,       584,
   16.7756,       578,
   16.7958,       529,
   16.8161,       502,
   16.8363,       516,
   16.8565,       497,
   16.8767,       479,
   16.8969,       434,
   16.9172,       467,
   16.9374,       474,
   16.9576,       525,
   16.9778,       506,
    16.998,       504,
   17.0183,       484,
   17.0385,       517,
   17.0587,       457,
   17.0789,       476,
   17.0991,       484,
   17.1193,       464,
   17.1396,       506,
   17.1598,       428,
     17.18,       492,
   17.2002,       423,
   17.2204,       491,
   17.2407,       469,
   17.2609,       443,
   17.2811,       495,
   17.3013,       479,
   17.3215,       475,
   17.3418,       463,
    17.362,       464,
   17.3822,       445,
   17.4024,       443,
   17.4226,       502,
   17.4428,       472,
   17.4631,       464,
   17.4833,       435,
   17.5035,       438,
   17.5237,       456,
   17.5439,       436,
   17.5642,       456,
   17.5844,       487,
   17.6046,       451,
   17.6248,       480,
    17.645,       443,
   17.6653,       492,
   17.6855,       456,
   17.7057,       439,
   17.7259,       522,
   17.7461,       443,
   17.7663,       416,
   17.7866,       465,
   17.8068,       453,
    17.827,       436,
   17.8472,       460,
   17.8674,       449,
   17.8877,       440,
   17.9079,       468,
   17.9281,       451,
   17.9483,       474,
   17.9685,       423,
   17.9888,       420,
    18.009,       450,
   18.0292,       440,
   18.0494,       453,
   18.0696,       468,
   18.0898,       422,
   18.1101,       437,
   18.1303,       426,
   18.1505,       440,
   18.1707,       425,
   18.1909,       435,
   18.2112,       517,
   18.2314,       449,
   18.2516,       432,
   18.2718,       428,
    18.292,       443,
   18.3123,       403,
   18.3325,       461,
   18.3527,       460,
   18.3729,       465,
   18.3931,       460,
   18.4133,       461,
   18.4336,       436,
   18.4538,       427,
    18.474,       474,
   18.4942,       451,
   18.5144,       460,
   18.5347,       477,
   18.5549,       447,
   18.5751,       448,
   18.5953,       468,
   18.6155,       432,
   18.6358,       453,
    18.656,       415,
   18.6762,       432,
   18.6964,       422,
   18.7166,       443,
   18.7368,       448,
   18.7571,       416,
   18.7773,       413,
   18.7975,       447,
   18.8177,       452,
   18.8379,       410,
   18.8582,       446,
   18.8784,       466,
   18.8986,       456,
   18.9188,       403,
    18.939,       488,
   18.9593,       472,
   18.9795,       394,
   18.9997,       438,
   19.0199,       405,
   19.0401,       400,
   19.0603,       470,
   19.0806,       453,
   19.1008,       467,
    19.121,       431,
   19.1412,       423,
   19.1614,       436,
   19.1817,       460,
   19.2019,       411,
   19.2221,       405,
   19.2423,       427,
   19.2625,       449,
   19.2828,       416,
    19.303,       404,
   19.3232,       440,
   19.3434,       432,
   19.3636,       465,
   19.3838,       437,
   19.4041,       406,
   19.4243,       425,
   19.4445,       443,
   19.4647,       401,
   19.4849,       394,
   19.5052,       462,
   19.5254,       410,
   19.5456,       429,
   19.5658,       442,
    19.586,       424,
   19.6063,       418,
   19.6265,       462,
   19.6467,       416,
   19.6669,       437,
   19.6871,       466,
   19.7073,       422,
   19.7276,       403,
   19.7478,       450,
    19.768,       435,
   19.7882,       418,
   19.8084,       450,
   19.8287,       446,
   19.8489,       456,
   19.8691,       437,
   19.8893,       432,
   19.9095,       439,
   19.9298,       417,
     19.95,       401,
   19.9702,       423,
   19.9904,       435,
   20.0106,       453,
   20.0308,       416,
   20.0511,       440,
   20.0713,       414,
   20.0915,       435,
   20.1117,       471,
   20.1319,       442,
   20.1522,       399,
   20.1724,       445,
   20.1926,       436,
   20.2128,       415,
    20.233,       431,
   20.2533,       408,
   20.2735,       416,
   20.2937,       437,
   20.3139,       436,
   20.3341,       450,
   20.3543,       400,
   20.3746,       430,
   20.3948,       418,
    20.415,       409,
   20.4352,       432,
   20.4554,       437,
   20.4757,       430,
   20.4959,       410,
   20.5161,       440,
   20.5363,       400,
   20.5565,       411,
   20.5768,       426,
    20.597,       386,
   20.6172,       433,
   20.6374,       405,
   20.6576,       452,
   20.6778,       457,
   20.6981,       440,
   20.7183,       391,
   20.7385,       426,
   20.7587,       422,
   20.7789,       402,
   20.7992,       414,
   20.8194,       434,
   20.8396,       443,
   20.8598,       418,
     20.88,       439,
   20.9003,       441,
   20.9205,       433,
   20.9407,       414,
   20.9609,       429,
   20.9811,       446,
   21.0013,       395,
   21.0216,       462,
   21.0418,       443,
    21.062,       418,
   21.0822,       416,
   21.1024,       394,
   21.1227,       385,
   21.1429,       379,
   21.1631,       443,
   21.1833,       432,
   21.2035,       403,
   21.2238,       379,
    21.244,       417,
   21.2642,       409,
   21.2844,       386,
   21.3046,       373,
   21.3248,       428,
   21.3451,       401,
   21.3653,       410,
   21.3855,       424,
   21.4057,       408,
   21.4259,       376,
   21.4462,       386,
   21.4664,       399,
   21.4866,       394,
   21.5068,       389,
    21.527,       385,
   21.5473,       394,
   21.5675,       405,
   21.5877,       407,
   21.6079,       396,
   21.6281,       414,
   21.6483,       407,
   21.6686,       426,
   21.6888,       379,
    21.709,       440,
   21.7292,       425,
   21.7494,       429,
   21.7697,       435,
   21.7899,       381,
   21.8101,       405,
   21.8303,       425,
   21.8505,       404,
   21.8708,       407,
    21.891,       386,
   21.9112,       425,
   21.9314,       427,
   21.9516,       415,
   21.9718,       422,
   21.9921,       400,
   22.0123,       361,
   22.0325,       392,
   22.0527,       422,
   22.0729,       401,
   22.0932,       435,
   22.1134,       448,
   22.1336,       427,
   22.1538,       390,
    22.174,       365,
   22.1943,       428,
   22.2145,       407,
   22.2347,       448,
   22.2549,       418,
   22.2751,       369,
   22.2953,       384,
   22.3156,       426,
   22.3358,       428,
    22.356,       404,
   22.3762,       393,
   22.3964,       392,
   22.4167,       413,
   22.4369,       385,
   22.4571,       396,
   22.4773,       411,
   22.4975,       386,
   22.5178,       437,
    22.538,       391,
   22.5582,       442,
   22.5784,       423,
   22.5986,       395,
   22.6188,       405,
   22.6391,       419,
   22.6593,       416,
   22.6795,       443,
   22.6997,       371,
   22.7199,       399,
   22.7402,       409,
   22.7604,       420,
   22.7806,       453,
   22.8008,       466,
    22.821,       438,
   22.8413,       426,
   22.8615,       439,
   22.8817,       405,
   22.9019,       418,
   22.9221,       439,
   22.9423,       446,
   22.9626,       467,
   22.9828,       452,
    23.003,       432,
   23.0232,       431,
   23.0434,       425,
   23.0637,       452,
   23.0839,       447,
   23.1041,       443,
   23.1243,       453,
   23.1445,       443,
   23.1648,       450,
    23.185,       458,
   23.2052,       431,
   23.2254,       455,
   23.2456,       482,
   23.2658,       481,
   23.2861,       452,
   23.3063,       433,
   23.3265,       430,
   23.3467,       445,
   23.3669,       428,
   23.3872,       445,
   23.4074,       441,
   23.4276,       486,
   23.4478,       495,
    23.468,       410,
   23.4883,       490,
   23.5085,       440,
   23.5287,       410,
   23.5489,       430,
   23.5691,       451,
   23.5893,       446,
   23.6096,       422,
   23.6298,       410,
     23.65,       432,
   23.6702,       424,
   23.6904,       456,
   23.7107,       412,
   23.7309,       452,
   23.7511,       407,
   23.7713,       410,
   23.7915,       436,
   23.8118,       395,
    23.832,       392,
   23.8522,       440,
   23.8724,       412,
   23.8926,       392,
   23.9128,       424,
   23.9331,       377,
   23.9533,       424,
   23.9735,       443,
   23.9937,       428,
   24.0139,       441,
   24.0342,       426,
   24.0544,       465,
   24.0746,       467,
   24.0948,       467,
    24.115,       529,
   24.1353,       540,
   24.1555,       575,
   24.1757,       619,
   24.1959,       669,
   24.2161,       633,
   24.2363,       608,
   24.2566,       585,
   24.2768,       560,
    24.297,       517,
   24.3172,       453,
   24.3374,       463,
   24.3577,       499,
   24.3779,       469,
   24.3981,       431,
   24.4183,       460,
   24.4385,       461,
   24.4588,       484,
    24.479,       480,
   24.4992,       479,
   24.5194,       496,
   24.5396,       493,
   24.5599,       444,
   24.5801,       454,
   24.6003,       468,
   24.6205,       446,
   24.6407,       456,
   24.6609,       470,
   24.6812,       427,
   24.7014,       423,
   24.7216,       384,
   24.7418,       436,
    24.762,       384,
   24.7823,       444,
   24.8025,       442,
   24.8227,       383,
   24.8429,       383,
   24.8631,       392,
   24.8834,       400,
   24.9036,       368,
   24.9238,       372,
    24.944,       381,
   24.9642,       395,
   24.9844,       376,
   25.0047,       447,
   25.0249,       394,
   25.0451,       394,
   25.0653,       381,
   25.0855,       388,
   25.1058,       409,
    25.126,       360,
   25.1462,       399,
   25.1664,       358,
   25.1866,       395,
   25.2069,       368,
   25.2271,       380,
   25.2473,       366,
   25.2675,       409,
   25.2877,       391,
   25.3079,       389,
   25.3282,       354,
   25.3484,       389,
   25.3686,       360,
   25.3888,       405,
    25.409,       355,
   25.4293,       363,
   25.4495,       410,
   25.4697,       383,
   25.4899,       385,
   25.5101,       394,
   25.5304,       372,
   25.5506,       374,
   25.5708,       360,
    25.591,       342,
   25.6112,       381,
   25.6314,       361,
   25.6517,       413,
   25.6719,       407,
   25.6921,       438,
   25.7123,       397,
   25.7325,       408,
   25.7528,       367,
    25.773,       377,
   25.7932,       366,
   25.8134,       378,
   25.8336,       365,
   25.8539,       379,
   25.8741,       372,
   25.8943,       402,
   25.9145,       392,
   25.9347,       411,
   25.9549,       394,
   25.9752,       413,
   25.9954,       392,
   26.0156,       402,
   26.0358,       417,
    26.056,       368,
   26.0763,       432,
   26.0965,       380,
   26.1167,       404,
   26.1369,       385,
   26.1571,       381,
   26.1774,       386,
   26.1976,       363,
   26.2178,       375,
    26.238,       380,
   26.2582,       352,
   26.2784,       362,
   26.2987,       371,
   26.3189,       405,
   26.3391,       385,
   26.3593,       363,
   26.3795,       326,
   26.3998,       354,
     26.42,       409,
   26.4402,       410,
   26.4604,       379,
   26.4806,       405,
   26.5009,       396,
   26.5211,       395,
   26.5413,       404,
   26.5615,       423,
   26.5817,       400,
   26.6019,       381,
   26.6222,       364,
   26.6424,       375,
   26.6626,       375,
   26.6828,       394,
    26.703,       332,
   26.7233,       390,
   26.7435,       414,
   26.7637,       395,
   26.7839,       415,
   26.8041,       386,
   26.8244,       410,
   26.8446,       395,
   26.8648,       410,
    26.885,       418,
   26.9052,       481,
   26.9254,       494,
   26.9457,       543,
   26.9659,       480,
   26.9861,       529,
   27.0063,       482,
   27.0265,       463,
   27.0468,       513,
    27.067,       477,
   27.0872,       498,
   27.1074,       551,
   27.1276,       568,
   27.1479,       607,
   27.1681,       654,
   27.1883,       717,
   27.2085,       691,
   27.2287,       733,
   27.2489,       737,
   27.2692,       826,
   27.2894,       849,
   27.3096,       738,
   27.3298,       745,
     27.35,       692,
   27.3703,       628,
   27.3905,       580,
   27.4107,       543,
   27.4309,       528,
   27.4511,       528,
   27.4714,       520,
   27.4916,       485,
   27.5118,       444,
    27.532,       469,
   27.5522,       465,
   27.5724,       464,
   27.5927,       440,
   27.6129,       455,
   27.6331,       477,
   27.6533,       458,
   27.6735,       445,
   27.6938,       432,
    27.714,       427,
   27.7342,       407,
   27.7544,       439,
   27.7746,       415,
   27.7949,       371,
   27.8151,       391,
   27.8353,       388,
   27.8555,       406,
   27.8757,       376,
   27.8959,       369,
   27.9162,       396,
   27.9364,       390,
   27.9566,       392,
   27.9768,       356,
    27.997,       377,
   28.0173,       403,
   28.0375,       396,
   28.0577,       392,
   28.0779,       369,
   28.0981,       357,
   28.1184,       380,
   28.1386,       407,
   28.1588,       354,
    28.179,       370,
   28.1992,       373,
   28.2194,       384,
   28.2397,       387,
   28.2599,       348,
   28.2801,       394,
   28.3003,       366,
   28.3205,       391,
   28.3408,       361,
    28.361,       361,
   28.3812,       380,
   28.4014,       355,
   28.4216,       357,
   28.4419,       367,
   28.4621,       370,
   28.4823,       372,
   28.5025,       338,
   28.5227,       388,
   28.5429,       374,
   28.5632,       357,
   28.5834,       360,
   28.6036,       384,
   28.6238,       373,
    28.644,       366,
   28.6643,       419,
   28.6845,       365,
   28.7047,       374,
   28.7249,       382,
   28.7451,       353,
   28.7654,       420,
   28.7856,       340,
   28.8058,       394,
    28.826,       374,
   28.8462,       394,
   28.8664,       374,
   28.8867,       368,
   28.9069,       339,
   28.9271,       358,
   28.9473,       350,
   28.9675,       390,
   28.9878,       351,
    29.008,       344,
   29.0282,       361,
   29.0484,       412,
   29.0686,       380,
   29.0889,       384,
   29.1091,       341,
   29.1293,       382,
   29.1495,       338,
   29.1697,       369,
   29.1899,       330,
   29.2102,       345,
   29.2304,       369,
   29.2506,       373,
   29.2708,       351,
    29.291,       337,
   29.3113,       348,
   29.3315,       341,
   29.3517,       357,
   29.3719,       385,
   29.3921,       365,
   29.4124,       351,
   29.4326,       378,
   29.4528,       380,
    29.473,       347,
   29.4932,       380,
   29.5134,       389,
   29.5337,       445,
   29.5539,       359,
   29.5741,       375,
   29.5943,       363,
   29.6145,       386,
   29.6348,       371,
    29.655,       387,
   29.6752,       348,
   29.6954,       386,
   29.7156,       378,
   29.7359,       352,
   29.7561,       380,
   29.7763,       380,
   29.7965,       362,
   29.8167,       429,
   29.8369,       407,
   29.8572,       415,
   29.8774,       428,
   29.8976,       418,
   29.9178,       385,
    29.938,       413,
   29.9583,       387,
   29.9785,       393,
   29.9987,       388,
   30.0189,       394,
   30.0391,       393,
   30.0594,       398,
   30.0796,       394,
   30.0998,       366,
     30.12,       431,
   30.1402,       365,
   30.1604,       439,
   30.1807,       475,
   30.2009,       415,
   30.2211,       421,
   30.2413,       460,
   30.2615,       465,
   30.2818,       423,
    30.302,       468,
   30.3222,       522,
   30.3424,       518,
   30.3626,       568,
   30.3829,       601,
   30.4031,       632,
   30.4233,       694,
   30.4435,       818,
   30.4637,       925,
   30.4839,      1043,
   30.5042,      1304,
   30.5244,      1622,
   30.5446,      2064,
   30.5648,      2520,
    30.585,      2831,
   30.6053,      2812,
   30.6255,      2518,
   30.6457,      2182,
   30.6659,      1918,
   30.6861,      1532,
   30.7064,      1195,
   30.7266,       951,
   30.7468,       863,
    30.767,       711,
   30.7872,       636,
   30.8074,       637,
   30.8277,       601,
   30.8479,       509,
   30.8681,       535,
   30.8883,       522,
   30.9085,       530,
   30.9288,       497,
    30.949,       478,
   30.9692,       492,
   30.9894,       536,
   31.0096,       493,
   31.0299,       520,
   31.0501,       527,
   31.0703,       558,
   31.0905,       540,
   31.1107,       582,
   31.1309,       560,
   31.1512,       556,
   31.1714,       520,
   31.1916,       537,
   31.2118,       461,
    31.232,       478,
   31.2523,       442,
   31.2725,       467,
   31.2927,       477,
   31.3129,       473,
   31.3331,       490,
   31.3534,       524,
   31.3736,       510,
   31.3938,       498,
    31.414,       539,
   31.4342,       517,
   31.4544,       504,
   31.4747,       527,
   31.4949,       525,
   31.5151,       554,
   31.5353,       637,
   31.5555,       618,
   31.5758,       619,
    31.596,       659,
   31.6162,       712,
   31.6364,       782,
   31.6566,       843,
   31.6769,       949,
   31.6971,      1025,
   31.7173,      1288,
   31.7375,      1403,
   31.7577,      1509,
   31.7779,      1518,
   31.7982,      1449,
   31.8184,      1287,
   31.8386,      1226,
   31.8588,      1065,
    31.879,       949,
   31.8993,       927,
   31.9195,       872,
   31.9397,       894,
   31.9599,       857,
   31.9801,       827,
   32.0004,       787,
   32.0206,       713,
   32.0408,       648,
    32.061,       558,
   32.0812,       481,
   32.1014,       468,
   32.1217,       442,
   32.1419,       443,
   32.1621,       454,
   32.1823,       466,
   32.2025,       452,
   32.2228,       415,
    32.243,       408,
   32.2632,       377,
   32.2834,       387,
   32.3036,       403,
   32.3239,       406,
   32.3441,       394,
   32.3643,       388,
   32.3845,       368,
   32.4047,       392,
   32.4249,       365,
   32.4452,       367,
   32.4654,       391,
   32.4856,       358,
   32.5058,       364,
    32.526,       360,
   32.5463,       334,
   32.5665,       373,
   32.5867,       373,
   32.6069,       372,
   32.6271,       350,
   32.6474,       378,
   32.6676,       376,
   32.6878,       392,
    32.708,       371,
   32.7282,       370,
   32.7484,       368,
   32.7687,       335,
   32.7889,       370,
   32.8091,       369,
   32.8293,       381,
   32.8495,       363,
   32.8698,       371,
     32.89,       384,
   32.9102,       370,
   32.9304,       386,
   32.9506,       349,
   32.9709,       362,
   32.9911,       333,
   33.0113,       354,
   33.0315,       353,
   33.0517,       359,
   33.0719,       354,
   33.0922,       367,
   33.1124,       326,
   33.1326,       336,
   33.1528,       317,
    33.173,       390,
   33.1933,       357,
   33.2135,       357,
   33.2337,       392,
   33.2539,       335,
   33.2741,       391,
   33.2944,       339,
   33.3146,       329,
   33.3348,       352,
    33.355,       357,
   33.3752,       395,
   33.3954,       394,
   33.4157,       389,
   33.4359,       434,
   33.4561,       404,
   33.4763,       427,
   33.4965,       395,
   33.5168,       407,
    33.537,       412,
   33.5572,       383,
   33.5774,       385,
   33.5976,       375,
   33.6179,       361,
   33.6381,       364,
   33.6583,       372,
   33.6785,       381,
   33.6987,       408,
   33.7189,       411,
   33.7392,       388,
   33.7594,       429,
   33.7796,       388,
   33.7998,       425,
     33.82,       410,
   33.8403,       415,
   33.8605,       416,
   33.8807,       471,
   33.9009,       458,
   33.9211,       492,
   33.9414,       526,
   33.9616,       505,
   33.9818,       530,
    34.002,       534,
   34.0222,       521,
   34.0424,       520,
   34.0627,       506,
   34.0829,       483,
   34.1031,       480,
   34.1233,       467,
   34.1435,       521,
   34.1638,       488,
    34.184,       513,
   34.2042,       534,
   34.2244,       559,
   34.2446,       616,
   34.2649,       587,
   34.2851,       669,
   34.3053,       811,
   34.3255,       994,
   34.3457,      1236,
   34.3659,      1379,
   34.3862,      1389,
   34.4064,      1384,
   34.4266,      1389,
   34.4468,      1268,
    34.467,      1252,
   34.4873,      1270,
   34.5075,      1189,
   34.5277,      1274,
   34.5479,      1330,
   34.5681,      1543,
   34.5884,      1706,
   34.6086,      1960,
   34.6288,      2198,
    34.649,      2500,
   34.6692,      2847,
   34.6894,      3147,
   34.7097,      3517,
   34.7299,      3761,
   34.7501,      4017,
   34.7703,      4136,
   34.7905,      4227,
   34.8108,      4238,
    34.831,      4134,
   34.8512,      4164,
   34.8714,      3842,
   34.8916,      3737,
   34.9119,      3524,
   34.9321,      3364,
   34.9523,      3097,
   34.9725,      2819,
   34.9927,      2637,
   35.0129,      2443,
   35.0332,      2171,
   35.0534,      1966,
   35.0736,      1879,
   35.0938,      1694,
    35.114,      1672,
   35.1343,      1505,
   35.1545,      1380,
   35.1747,      1323,
   35.1949,      1230,
   35.2151,      1174,
   35.2354,      1099,
   35.2556,      1007,
   35.2758,      1015,
    35.296,       944,
   35.3162,       933,
   35.3365,       904,
   35.3567,       792,
   35.3769,       830,
   35.3971,       834,
   35.4173,       806,
   35.4375,       745,
   35.4578,       822,
    35.478,       743,
   35.4982,       808,
   35.5184,       767,
   35.5386,       721,
   35.5589,       765,
   35.5791,       681,
   35.5993,       664,
   35.6195,       665,
   35.6397,       640,
     35.66,       700,
   35.6802,       642,
   35.7004,       635,
   35.7206,       658,
   35.7408,       627,
    35.761,       578,
   35.7813,       587,
   35.8015,       580,
   35.8217,       554,
   35.8419,       582,
   35.8621,       601,
   35.8824,       575,
   35.9026,       559,
   35.9228,       571,
    35.943,       614,
   35.9632,       652,
   35.9835,       561,
   36.0037,       581,
   36.0239,       584,
   36.0441,       565,
   36.0643,       616,
   36.0845,       511,
   36.1048,       560,
    36.125,       524,
   36.1452,       530,
   36.1654,       509,
   36.1856,       519,
   36.2059,       516,
   36.2261,       511,
   36.2463,       546,
   36.2665,       604,
   36.2867,       610,
    36.307,       609,
   36.3272,       606,
   36.3474,       607,
   36.3676,       565,
   36.3878,       550,
    36.408,       528,
   36.4283,       502,
   36.4485,       487,
   36.4687,       463,
   36.4889,       430,
   36.5091,       451,
   36.5294,       434,
   36.5496,       434,
   36.5698,       395,
     36.59,       437,
   36.6102,       449,
   36.6305,       408,
   36.6507,       461,
   36.6709,       448,
   36.6911,       431,
   36.7113,       435,
   36.7315,       460,
   36.7518,       461,
    36.772,       490,
   36.7922,       485,
   36.8124,       493,
   36.8326,       546,
   36.8529,       550,
   36.8731,       639,
   36.8933,       692,
   36.9135,       735,
   36.9337,       939,
    36.954,      1180,
   36.9742,      1609,
   36.9944,      2306,
   37.0146,      3329,
   37.0348,      4686,
    37.055,      5211,
   37.0753,      4387,
   37.0955,      3741,
   37.1157,      3566,
   37.1359,      3334,
   37.1561,      2566,
   37.1764,      1802,
   37.1966,      1299,
   37.2168,      1013,
    37.237,       799,
   37.2572,       698,
   37.2775,       657,
   37.2977,       617,
   37.3179,       569,
   37.3381,       543,
   37.3583,       550,
   37.3785,       521,
   37.3988,       481,
    37.419,       508,
   37.4392,       471,
   37.4594,       450,
   37.4796,       451,
   37.4999,       425,
   37.5201,       438,
   37.5403,       423,
   37.5605,       407,
   37.5807,       438,
    37.601,       492,
   37.6212,       469,
   37.6414,       484,
   37.6616,       511,
   37.6818,       444,
    37.702,       427,
   37.7223,       474,
   37.7425,       412,
   37.7627,       380,
   37.7829,       398,
   37.8031,       409,
   37.8234,       401,
   37.8436,       339,
   37.8638,       400,
    37.884,       356,
   37.9042,       367,
   37.9245,       366,
   37.9447,       367,
   37.9649,       352,
   37.9851,       382,
   38.0053,       361,
   38.0255,       402,
   38.0458,       394,
    38.066,       418,
   38.0862,       378,
   38.1064,       428,
   38.1266,       406,
   38.1469,       447,
   38.1671,       450,
   38.1873,       486,
   38.2075,       440,
   38.2277,       473,
    38.248,       538,
   38.2682,       532,
   38.2884,       539,
   38.3086,       508,
   38.3288,       490,
    38.349,       509,
   38.3693,       517,
   38.3895,       451,
   38.4097,       471,
   38.4299,       430,
   38.4501,       463,
   38.4704,       461,
   38.4906,       491,
   38.5108,       565,
    38.531,       568,
   38.5512,       581,
   38.5715,       641,
   38.5917,       720,
   38.6119,       868,
   38.6321,      1051,
   38.6523,      1345,
   38.6725,      1440,
   38.6928,      1429,
    38.713,      1426,
   38.7332,      1236,
   38.7534,      1189,
   38.7736,      1037,
   38.7939,       973,
   38.8141,       778,
   38.8343,       706,
   38.8545,       586,
   38.8747,       546,
    38.895,       556,
   38.9152,       473,
   38.9354,       479,
   38.9556,       489,
   38.9758,       471,
    38.996,       472,
   39.0163,       430,
   39.0365,       469,
   39.0567,       430,
   39.0769,       457,
   39.0971,       434,
   39.1174,       415,
   39.1376,       401,
   39.1578,       353,
    39.178,       362,
   39.1982,       354,
   39.2185,       356,
   39.2387,       348,
   39.2589,       322,
   39.2791,       331,
   39.2993,       358,
   39.3195,       339,
   39.3398,       330,
     39.36,       337,
   39.3802,       320,
   39.4004,       310,
   39.4206,       353,
   39.4409,       308,
   39.4611,       321,
   39.4813,       315,
   39.5015,       320,
   39.5217,       341,
    39.542,       328,
   39.5622,       312,
   39.5824,       317,
   39.6026,       281,
   39.6228,       326,
    39.643,       309,
   39.6633,       313,
   39.6835,       308,
   39.7037,       281,
   39.7239,       310,
   39.7441,       312,
   39.7644,       297,
   39.7846,       311,
   39.8048,       338,
    39.825,       345,
   39.8452,       362,
   39.8655,       320,
   39.8857,       288,
   39.9059,       329,
   39.9261,       329,
   39.9463,       319,
   39.9665,       340,
   39.9868,       345,
    40.007,       323,
   40.0272,       282,
   40.0474,       324,
   40.0676,       331,
   40.0879,       295,
   40.1081,       304,
   40.1283,       300,
   40.1485,       313,
   40.1687,       289,
    40.189,       324,
   40.2092,       349,
   40.2294,       345,
   40.2496,       344,
   40.2698,       330,
     40.29,       337,
   40.3103,       330,
   40.3305,       304,
   40.3507,       354,
   40.3709,       332,
   40.3911,       325,
   40.4114,       303,
   40.4316,       320,
   40.4518,       329,
    40.472,       321,
   40.4922,       327,
   40.5125,       308,
   40.5327,       371,
   40.5529,       332,
   40.5731,       339,
   40.5933,       351,
   40.6135,       373,
   40.6338,       332,
    40.654,       327,
   40.6742,       330,
   40.6944,       344,
   40.7146,       334,
   40.7349,       326,
   40.7551,       319,
   40.7753,       306,
   40.7955,       351,
   40.8157,       317,
    40.836,       330,
   40.8562,       339,
   40.8764,       339,
   40.8966,       314,
   40.9168,       323,
    40.937,       330,
   40.9573,       331,
   40.9775,       316,
   40.9977,       319,
   41.0179,       352,
   41.0381,       339,
   41.0584,       330,
   41.0786,       329,
   41.0988,       318,
    41.119,       322,
   41.1392,       337,
   41.1595,       314,
   41.1797,       309,
   41.1999,       346,
   41.2201,       319,
   41.2403,       294,
   41.2605,       310,
   41.2808,       298,
    41.301,       314,
   41.3212,       299,
   41.3414,       323,
   41.3616,       311,
   41.3819,       304,
   41.4021,       314,
   41.4223,       316,
   41.4425,       343,
   41.4627,       336,
    41.483,       310,
   41.5032,       334,
   41.5234,       341,
   41.5436,       315,
   41.5638,       314,
    41.584,       292,
   41.6043,       325,
   41.6245,       334,
   41.6447,       335,
   41.6649,       368,
   41.6851,       316,
   41.7054,       336,
   41.7256,       333,
   41.7458,       358,
    41.766,       286,
   41.7862,       330,
   41.8065,       336,
   41.8267,       373,
   41.8469,       367,
   41.8671,       360,
   41.8873,       346,
   41.9075,       363,
   41.9278,       397,
    41.948,       395,
   41.9682,       408,
   41.9884,       453,
   42.0086,       468,
   42.0289,       446,
   42.0491,       548,
   42.0693,       596,
   42.0895,       608,
   42.1097,       687,
     42.13,       814,
   42.1502,       852,
   42.1704,       956,
   42.1906,      1098,
   42.2108,      1099,
    42.231,      1121,
   42.2513,      1044,
   42.2715,      1023,
   42.2917,      1001,
   42.3119,      1036,
   42.3321,       996,
   42.3524,       914,
   42.3726,       789,
   42.3928,       807,
    42.413,       818,
   42.4332,       749,
   42.4535,       710,
   42.4737,       711,
   42.4939,       750,
   42.5141,       753,
   42.5343,       792,
   42.5545,       845,
   42.5748,       847,
    42.595,       807,
   42.6152,       832,
   42.6354,       772,
   42.6556,       782,
   42.6759,       815,
   42.6961,       781,
   42.7163,       758,
   42.7365,       766,
   42.7567,       735,
    42.777,       698,
   42.7972,       650,
   42.8174,       664,
   42.8376,       624,
   42.8578,       546,
    42.878,       568,
   42.8983,       541,
   42.9185,       509,
   42.9387,       496,
   42.9589,       466,
   42.9791,       488,
   42.9994,       423,
   43.0196,       438,
   43.0398,       402,
     43.06,       412,
   43.0802,       420,
   43.1005,       429,
   43.1207,       419,
   43.1409,       393,
   43.1611,       376,
   43.1813,       370,
   43.2015,       362,
   43.2218,       372,
    43.242,       378,
   43.2622,       392,
   43.2824,       393,
   43.3026,       392,
   43.3229,       416,
   43.3431,       455,
   43.3633,       407,
   43.3835,       387,
   43.4037,       421,
    43.424,       404,
   43.4442,       414,
   43.4644,       446,
   43.4846,       447,
   43.5048,       504,
    43.525,       570,
   43.5453,       545,
   43.5655,       588,
   43.5857,       600,
   43.6059,       609,
   43.6261,       576,
   43.6464,       563,
   43.6666,       538,
   43.6868,       543,
    43.707,       514,
   43.7272,       472,
   43.7475,       451,
   43.7677,       447,
   43.7879,       407,
   43.8081,       412,
   43.8283,       402,
   43.8485,       408,
   43.8688,       364,
    43.889,       357,
   43.9092,       361,
   43.9294,       394,
   43.9496,       350,
   43.9699,       380,
   43.9901,       352,
   44.0103,       381,
   44.0305,       365,
   44.0507,       367,
    44.071,       330,
   44.0912,       379,
   44.1114,       421,
   44.1316,       407,
   44.1518,       468,
    44.172,       453,
   44.1923,       535,
   44.2125,       595,
   44.2327,       717,
   44.2529,       822,
   44.2731,      1064,
   44.2934,      1156,
   44.3136,      1144,
   44.3338,      1080,
    44.354,       978,
   44.3742,       968,
   44.3945,       907,
   44.4147,       820,
   44.4349,       722,
   44.4551,       672,
   44.4753,       539,
   44.4955,       489,
   44.5158,       478,
    44.536,       451,
   44.5562,       415,
   44.5764,       433,
   44.5966,       389,
   44.6169,       407,
   44.6371,       381,
   44.6573,       385,
   44.6775,       442,
   44.6977,       359,
    44.718,       383,
   44.7382,       419,
   44.7584,       433,
   44.7786,       439,
   44.7988,       445,
    44.819,       520,
   44.8393,       550,
   44.8595,       595,
   44.8797,       613,
   44.8999,       719,
   44.9201,       719,
   44.9404,       764,
   44.9606,       828,
   44.9808,       795,
    45.001,       741,
   45.0212,       763,
   45.0415,       706,
   45.0617,       706,
   45.0819,       674,
   45.1021,       721,
   45.1223,       737,
   45.1425,       742,
   45.1628,       726,
    45.183,       746,
   45.2032,       702,
   45.2234,       676,
   45.2436,       621,
   45.2639,       567,
   45.2841,       562,
   45.3043,       493,
   45.3245,       501,
   45.3447,       439,
    45.365,       378,
   45.3852,       386,
   45.4054,       366,
   45.4256,       375,
   45.4458,       278,
    45.466,       322,
   45.4863,       337,
   45.5065,       333,
   45.5267,       326,
   45.5469,       301,
   45.5671,       298,
   45.5874,       318,
   45.6076,       308,
   45.6278,       307,
    45.648,       305,
   45.6682,       286,
   45.6885,       294,
   45.7087,       278,
   45.7289,       300,
   45.7491,       305,
   45.7693,       258,
   45.7895,       302,
   45.8098,       300,
     45.83,       286,
   45.8502,       273,
   45.8704,       300,
   45.8906,       316,
   45.9109,       287,
   45.9311,       278,
   45.9513,       290,
   45.9715,       316,
   45.9917,       311,
    46.012,       311,
   46.0322,       341,
   46.0524,       325,
   46.0726,       337,
   46.0928,       377,
   46.1131,       340,
   46.1333,       376,
   46.1535,       386,
   46.1737,       432,
   46.1939,       428,
   46.2141,       453,
   46.2344,       455,
   46.2546,       453,
   46.2748,       444,
    46.295,       452,
   46.3152,       440,
   46.3355,       464,
   46.3557,       432,
   46.3759,       437,
   46.3961,       404,
   46.4163,       417,
   46.4366,       408,
   46.4568,       431,
    46.477,       443,
   46.4972,       487,
   46.5174,       538,
   46.5376,       554,
   46.5579,       554,
   46.5781,       640,
   46.5983,       657,
   46.6185,       680,
   46.6387,       695,
    46.659,       761,
   46.6792,       770,
   46.6994,       832,
   46.7196,       830,
   46.7398,       900,
   46.7601,       871,
   46.7803,       873,
   46.8005,       907,
   46.8207,       818,
   46.8409,       841,
   46.8611,       814,
   46.8814,       837,
   46.9016,       721,
   46.9218,       746,
    46.942,       734,
   46.9622,       696,
   46.9825,       683,
   47.0027,       652,
   47.0229,       645,
   47.0431,       626,
   47.0633,       620,
   47.0836,       632,
   47.1038,       524,
    47.124,       539,
   47.1442,       506,
   47.1644,       460,
   47.1846,       519,
   47.2049,       422,
   47.2251,       456,
   47.2453,       440,
   47.2655,       438,
   47.2857,       412,
    47.306,       398,
   47.3262,       444,
   47.3464,       398,
   47.3666,       419,
   47.3868,       388,
   47.4071,       379,
   47.4273,       390,
   47.4475,       361,
   47.4677,       357,
   47.4879,       350,
   47.5081,       379,
   47.5284,       390,
   47.5486,       350,
   47.5688,       362,
    47.589,       340,
   47.6092,       373,
   47.6295,       380,
   47.6497,       352,
   47.6699,       372,
   47.6901,       355,
   47.7103,       366,
   47.7306,       393,
   47.7508,       366,
    47.771,       371,
   47.7912,       420,
   47.8114,       354,
   47.8316,       380,
   47.8519,       353,
   47.8721,       348,
   47.8923,       355,
   47.9125,       345,
   47.9327,       346,
    47.953,       397,
   47.9732,       359,
   47.9934,       415,
   48.0136,       360,
   48.0338,       368,
   48.0541,       433,
   48.0743,       393,
   48.0945,       408,
   48.1147,       411,
   48.1349,       406,
   48.1551,       418,
   48.1754,       455,
   48.1956,       469,
   48.2158,       511,
    48.236,       581,
   48.2562,       515,
   48.2765,       574,
   48.2967,       519,
   48.3169,       475,
   48.3371,       452,
   48.3573,       452,
   48.3776,       446,
   48.3978,       446,
    48.418,       424,
   48.4382,       339,
   48.4584,       325,
   48.4786,       316,
   48.4989,       316,
   48.5191,       303,
   48.5393,       292,
   48.5595,       296,
   48.5797,       282,
      48.6,       289,
   48.6202,       273,
   48.6404,       293,
   48.6606,       278,
   48.6808,       266,
   48.7011,       257,
   48.7213,       261,
   48.7415,       263,
   48.7617,       277,
   48.7819,       291,
   48.8021,       286,
   48.8224,       275,
   48.8426,       266,
   48.8628,       299,
    48.883,       278,
   48.9032,       276,
   48.9235,       284,
   48.9437,       259,
   48.9639,       268,
   48.9841,       253,
   49.0043,       238,
   49.0246,       234,
   49.0448,       224,
    49.065,       272,
   49.0852,       264,
   49.1054,       258,
   49.1256,       262,
   49.1459,       266,
   49.1661,       255,
   49.1863,       254,
   49.2065,       283,
   49.2267,       276,
    49.247,       297,
   49.2672,       254,
   49.2874,       255,
   49.3076,       262,
   49.3278,       261,
   49.3481,       257,
   49.3683,       256,
   49.3885,       247,
   49.4087,       241,
   49.4289,       287,
   49.4491,       241,
   49.4694,       291,
   49.4896,       256,
   49.5098,       273,
     49.53,       267,
   49.5502,       273,
   49.5705,       274,
   49.5907,       241,
   49.6109,       254,
   49.6311,       271,
   49.6513,       274,
   49.6716,       304,
   49.6918,       276,
    49.712,       310,
   49.7322,       256,
   49.7524,       246,
   49.7726,       267,
   49.7929,       285,
   49.8131,       270,
   49.8333,       287,
   49.8535,       267,
   49.8737,       274,
    49.894,       326,
   49.9142,       289,
   49.9344,       342,
   49.9546,       329,
   49.9748,       313,
   49.9951,       336,
   50.0153,       307,
   50.0355,       335,
   50.0557,       340,
   50.0759,       353,
   50.0961,       353,
   50.1164,       357,
   50.1366,       371,
   50.1568,       370,
    50.177,       382,
   50.1972,       435,
   50.2175,       450,
   50.2377,       489,
   50.2579,       623,
   50.2781,       626,
   50.2983,       685,
   50.3186,       653,
   50.3388,       658,
    50.359,       596,
   50.3792,       563,
   50.3994,       530,
   50.4196,       563,
   50.4399,       491,
   50.4601,       462,
   50.4803,       426,
   50.5005,       376,
   50.5207,       387,
    50.541,       350,
   50.5612,       346,
   50.5814,       364,
   50.6016,       393,
   50.6218,       406,
   50.6421,       456,
   50.6623,       382,
   50.6825,       425,
   50.7027,       407,
   50.7229,       429,
   50.7431,       387,
   50.7634,       386,
   50.7836,       394,
   50.8038,       427,
    50.824,       403,
   50.8442,       420,
   50.8645,       375,
   50.8847,       393,
   50.9049,       391,
   50.9251,       427,
   50.9453,       414,
   50.9656,       433,
   50.9858,       430,
    51.006,       441,
   51.0262,       440,
   51.0464,       500,
   51.0666,       520,
   51.0869,       572,
   51.1071,       553,
   51.1273,       608,
   51.1475,       651,
   51.1677,       710,
    51.188,       690,
   51.2082,       710,
   51.2284,       760,
   51.2486,       768,
   51.2688,       779,
   51.2891,       796,
   51.3093,       778,
   51.3295,       742,
   51.3497,       754,
   51.3699,       800,
   51.3901,       738,
   51.4104,       728,
   51.4306,       692,
   51.4508,       702,
    51.471,       596,
   51.4912,       602,
   51.5115,       573,
   51.5317,       581,
   51.5519,       498,
   51.5721,       543,
   51.5923,       493,
   51.6126,       475,
   51.6328,       457,
    51.653,       445,
   51.6732,       451,
   51.6934,       388,
   51.7136,       409,
   51.7339,       420,
   51.7541,       382,
   51.7743,       380,
   51.7945,       386,
   51.8147,       385,
    51.835,       360,
   51.8552,       333,
   51.8754,       344,
   51.8956,       342,
   51.9158,       357,
   51.9361,       339,
   51.9563,       332,
   51.9765,       340,
   51.9967,       342,
   52.0169,       337,
   52.0371,       325,
   52.0574,       311,
   52.0776,       310,
   52.0978,       312,
    52.118,       331,
   52.1382,       305,
   52.1585,       330,
   52.1787,       292,
   52.1989,       353,
   52.2191,       320,
   52.2393,       324,
   52.2596,       322,
   52.2798,       343,
      52.3,       290,
   52.3202,       300,
   52.3404,       304,
   52.3606,       320,
   52.3809,       294,
   52.4011,       286,
   52.4213,       316,
   52.4415,       319,
   52.4617,       317,
    52.482,       282,
   52.5022,       312,
   52.5224,       313,
   52.5426,       312,
   52.5628,       307,
   52.5831,       326,
   52.6033,       317,
   52.6235,       327,
   52.6437,       329,
   52.6639,       340,
   52.6841,       342,
   52.7044,       320,
   52.7246,       289,
   52.7448,       289,
    52.765,       270,
   52.7852,       307,
   52.8055,       303,
   52.8257,       287,
   52.8459,       312,
   52.8661,       315,
   52.8863,       295,
   52.9066,       335,
   52.9268,       309,
    52.947,       306,
   52.9672,       281,
   52.9874,       308,
   53.0076,       344,
   53.0279,       369,
   53.0481,       367,
   53.0683,       411,
   53.0885,       385,
   53.1087,       394,
    53.129,       419,
   53.1492,       410,
   53.1694,       449,
   53.1896,       490,
   53.2098,       519,
   53.2301,       596,
   53.2503,       765,
   53.2705,       835,
   53.2907,      1082,
   53.3109,      1251,
   53.3311,      1415,
   53.3514,      1436,
   53.3716,      1341,
   53.3918,      1290,
    53.412,      1243,
   53.4322,      1157,
   53.4525,      1083,
   53.4727,      1049,
   53.4929,       988,
   53.5131,       887,
   53.5333,       750,
   53.5536,       730,
   53.5738,       652,
    53.594,       627,
   53.6142,       588,
   53.6344,       623,
   53.6546,       619,
   53.6749,       649,
   53.6951,       756,
   53.7153,       837,
   53.7355,       963,
   53.7557,      1238,
    53.776,      1442,
   53.7962,      1536,
   53.8164,      1621,
   53.8366,      1438,
   53.8568,      1354,
   53.8771,      1266,
   53.8973,      1158,
   53.9175,      1201,
   53.9377,      1156,
   53.9579,      1015,
   53.9781,       823,
   53.9984,       733,
   54.0186,       596,
   54.0388,       493,
    54.059,       502,
   54.0792,       461,
   54.0995,       460,
   54.1197,       431,
   54.1399,       410,
   54.1601,       381,
   54.1803,       352,
   54.2006,       309,
   54.2208,       354,
    54.241,       331,
   54.2612,       326,
   54.2814,       307,
   54.3016,       332,
   54.3219,       300,
   54.3421,       311,
   54.3623,       292,
   54.3825,       308,
   54.4027,       307,
    54.423,       267,
   54.4432,       291,
   54.4634,       292,
   54.4836,       287,
   54.5038,       254,
   54.5241,       278,
   54.5443,       261,
   54.5645,       285,
   54.5847,       267,
   54.6049,       293,
   54.6251,       279,
   54.6454,       258,
   54.6656,       289,
   54.6858,       277,
    54.706,       294,
   54.7262,       298,
   54.7465,       270,
   54.7667,       258,
   54.7869,       306,
   54.8071,       265,
   54.8273,       262,
   54.8476,       273,
   54.8678,       266,
    54.888,       250,
   54.9082,       279,
   54.9284,       275,
   54.9486,       265,
   54.9689,       252,
   54.9891,       254,
   55.0093,       282,
   55.0295,       238,
   55.0497,       275,
     55.07,       272,
   55.0902,       298,
   55.1104,       252,
   55.1306,       285,
   55.1508,       272,
   55.1711,       296,
   55.1913,       257,
   55.2115,       277,
   55.2317,       262,
   55.2519,       274,
   55.2721,       273,
   55.2924,       257,
   55.3126,       299,
   55.3328,       275,
    55.353,       304,
   55.3732,       329,
   55.3935,       296,
   55.4137,       326,
   55.4339,       288,
   55.4541,       285,
   55.4743,       307,
   55.4946,       291,
   55.5148,       305,
    55.535,       320,
   55.5552,       331,
   55.5754,       337,
   55.5956,       330,
   55.6159,       320,
   55.6361,       301,
   55.6563,       325,
   55.6765,       319,
   55.6967,       321,
    55.717,       340,
   55.7372,       340,
   55.7574,       368,
   55.7776,       391,
   55.7978,       395,
   55.8181,       431,
   55.8383,       426,
   55.8585,       474,
   55.8787,       500,
   55.8989,       492,
   55.9191,       475,
   55.9394,       527,
   55.9596,       490,
   55.9798,       520,
        56,       543,
   56.0202,       523,
   56.0405,       541,
   56.0607,       567,
   56.0809,       565,
   56.1011,       529,
   56.1213,       529,
   56.1416,       524,
   56.1618,       524,
    56.182,       542,
   56.2022,       595,
   56.2224,       571,
   56.2426,       603,
   56.2629,       605,
   56.2831,       604,
   56.3033,       643,
   56.3235,       609,
   56.3437,       645,
    56.364,       628,
   56.3842,       707,
   56.4044,       697,
   56.4246,       711,
   56.4448,       723,
   56.4651,       749,
   56.4853,       740,
   56.5055,       784,
   56.5257,       787,
   56.5459,       771,
   56.5661,       839,
   56.5864,       816,
   56.6066,       893,
   56.6268,       965,
    56.647,       933,
   56.6672,       954,
   56.6875,       991,
   56.7077,      1078,
   56.7279,      1159,
   56.7481,      1159,
   56.7683,      1197,
   56.7886,      1134,
   56.8088,      1146,
    56.829,      1140,
   56.8492,      1094,
   56.8694,      1109,
   56.8897,      1130,
   56.9099,      1129,
   56.9301,      1096,
   56.9503,      1008,
   56.9705,       919,
   56.9907,       917,
    57.011,       899,
   57.0312,       850,
   57.0514,       799,
   57.0716,       796,
   57.0918,       798,
   57.1121,       675,
   57.1323,       657,
   57.1525,       641,
   57.1727,       614,
   57.1929,       596,
   57.2132,       581,
   57.2334,       563,
   57.2536,       534,
   57.2738,       480,
    57.294,       521,
   57.3142,       496,
   57.3345,       472,
   57.3547,       526,
   57.3749,       515,
   57.3951,       494,
   57.4153,       500,
   57.4356,       499,
   57.4558,       548,
    57.476,       516,
   57.4962,       526,
   57.5164,       587,
   57.5367,       550,
   57.5569,       597,
   57.5771,       541,
   57.5973,       590,
   57.6175,       613,
   57.6377,       649,
    57.658,       696,
   57.6782,       669,
   57.6984,       705,
   57.7186,       724,
   57.7388,       720,
   57.7591,       766,
   57.7793,       746,
   57.7995,       722,
   57.8197,       744,
   57.8399,       769,
   57.8602,       740,
   57.8804,       690,
   57.9006,       736,
   57.9208,       720,
    57.941,       687,
   57.9612,       693,
   57.9815,       675,
   58.0017,       646,
   58.0219,       653,
   58.0421,       594,
   58.0623,       597,
   58.0826,       570,
   58.1028,       581,
    58.123,       571,
   58.1432,       566,
   58.1634,       612,
   58.1837,       537,
   58.2039,       554,
   58.2241,       511,
   58.2443,       477,
   58.2645,       494,
   58.2847,       477,
    58.305,       504,
   58.3252,       452,
   58.3454,       484,
   58.3656,       438,
   58.3858,       416,
   58.4061,       419,
   58.4263,       390,
   58.4465,       395,
   58.4667,       397,
   58.4869,       379,
   58.5072,       373,
   58.5274,       408,
   58.5476,       360,
   58.5678,       381,
    58.588,       417,
   58.6082,       378,
   58.6285,       389,
   58.6487,       428,
   58.6689,       385,
   58.6891,       413,
   58.7093,       376,
   58.7296,       400,
   58.7498,       372,
     58.77,       409,
   58.7902,       375,
   58.8104,       409,
   58.8307,       377,
   58.8509,       389,
   58.8711,       425,
   58.8913,       460,
   58.9115,       458,
   58.9317,       507,
    58.952,       559,
   58.9722,       582,
   58.9924,       644,
   59.0126,       725,
   59.0328,       757,
   59.0531,       714,
   59.0733,       726,
   59.0935,       666,
   59.1137,       635,
   59.1339,       645,
   59.1542,       680,
   59.1744,       647,
   59.1946,       568,
   59.2148,       550,
    59.235,       507,
   59.2552,       473,
   59.2755,       422,
   59.2957,       407,
   59.3159,       369,
   59.3361,       341,
   59.3563,       318,
   59.3766,       337,
   59.3968,       355,
    59.417,       320,
   59.4372,       315,
   59.4574,       331,
   59.4777,       312,
   59.4979,       282,
   59.5181,       277,
   59.5383,       275,
   59.5585,       277,
   59.5787,       271,
    59.599,       289,
   59.6192,       246,
   59.6394,       287,
   59.6596,       272,
   59.6798,       276,
   59.7001,       280,
   59.7203,       276,
   59.7405,       258,
   59.7607,       272,
   59.7809,       294,
   59.8012,       278,
   59.8214,       287,
   59.8416,       245,
   59.8618,       253,
    59.882,       252,
   59.9022,       243,
   59.9225,       252,
   59.9427,       282,
   59.9629,       263,
   59.9831,       257,
   60.0033,       239,
   60.0236,       245,
   60.0438,       251,
    60.064,       255,
   60.0842,       246,
   60.1044,       221,
   60.1247,       247,
   60.1449,       239,
   60.1651,       274,
   60.1853,       251,
   60.2055,       272,
   60.2257,       234,
    60.246,       269,
   60.2662,       268,
   60.2864,       229,
   60.3066,       224,
   60.3268,       234,
   60.3471,       235,
   60.3673,       240,
   60.3875,       221,
   60.4077,       241,
   60.4279,       252,
   60.4482,       213,
   60.4684,       253,
   60.4886,       223,
   60.5088,       228,
    60.529,       210,
   60.5492,       248,
   60.5695,       250,
   60.5897,       225,
   60.6099,       219,
   60.6301,       188,
   60.6503,       230,
   60.6706,       233,
   60.6908,       219,
    60.711,       229,
   60.7312,       247,
   60.7514,       223,
   60.7717,       220,
   60.7919,       209,
   60.8121,       235,
   60.8323,       233,
   60.8525,       237,
   60.8727,       221,
    60.893,       249,
   60.9132,       251,
   60.9334,       254,
   60.9536,       232,
   60.9738,       208,
   60.9941,       243,
   61.0143,       269,
   61.0345,       252,
   61.0547,       258,
   61.0749,       281,
   61.0952,       252,
   61.1154,       266,
   61.1356,       273,
   61.1558,       275,
    61.176,       287,
   61.1962,       268,
   61.2165,       252,
   61.2367,       249,
   61.2569,       247,
   61.2771,       250,
   61.2973,       248,
   61.3176,       256,
   61.3378,       260,
    61.358,       262,
   61.3782,       272,
   61.3984,       266,
   61.4187,       272,
   61.4389,       289,
   61.4591,       272,
   61.4793,       294,
   61.4995,       285,
   61.5197,       299,
     61.54,       316,
   61.5602,       340,
   61.5804,       372,
   61.6006,       423,
   61.6208,       461,
   61.6411,       502,
   61.6613,       571,
   61.6815,       687,
   61.7017,       758,
   61.7219,       731,
   61.7422,       704,
   61.7624,       674,
   61.7826,       602,
   61.8028,       586,
    61.823,       597,
   61.8432,       556,
   61.8635,       578,
   61.8837,       540,
   61.9039,       503,
   61.9241,       422,
   61.9443,       400,
   61.9646,       361,
   61.9848,       325,
    62.005,       330,
   62.0252,       296,
   62.0454,       309,
   62.0657,       292,
   62.0859,       302,
   62.1061,       267,
   62.1263,       290,
   62.1465,       270,
   62.1667,       306,
    62.187,       313,
   62.2072,       320,
   62.2274,       293,
   62.2476,       357,
   62.2678,       373,
   62.2881,       393,
   62.3083,       461,
   62.3285,       443,
   62.3487,       500,
   62.3689,       510,
   62.3892,       551,
   62.4094,       488,
   62.4296,       478,
   62.4498,       419,
     62.47,       427,
   62.4902,       447,
   62.5105,       390,
   62.5307,       391,
   62.5509,       361,
   62.5711,       350,
   62.5913,       314,
   62.6116,       314,
   62.6318,       298,
    62.652,       277,
   62.6722,       290,
   62.6924,       267,
   62.7127,       262,
   62.7329,       256,
   62.7531,       218,
   62.7733,       222,
   62.7935,       239,
   62.8137,       223,
    62.834,       227,
   62.8542,       222,
   62.8744,       175,
   62.8946,       173,
   62.9148,       192,
   62.9351,       206,
   62.9553,       214,
   62.9755,       232,
   62.9957,       218,
   63.0159,       219,
   63.0362,       218,
   63.0564,       222,
   63.0766,       213,
   63.0968,       199,
    63.117,       214,
   63.1372,       207,
   63.1575,       238,
   63.1777,       223,
   63.1979,       203,
   63.2181,       217,
   63.2383,       188,
   63.2586,       191,
   63.2788,       219,
    63.299,       199,
   63.3192,       200,
   63.3394,       227,
   63.3597,       194,
   63.3799,       233,
   63.4001,       212,
   63.4203,       210,
   63.4405,       224,
   63.4607,       235,
    63.481,       245,
   63.5012,       250,
   63.5214,       273,
   63.5416,       282,
   63.5618,       289,
   63.5821,       257,
   63.6023,       267,
   63.6225,       233,
   63.6427,       258,
   63.6629,       237,
   63.6832,       229,
   63.7034,       253,
   63.7236,       231,
   63.7438,       218,
    63.764,       214,
   63.7842,       210,
   63.8045,       259,
   63.8247,       226,
   63.8449,       213,
   63.8651,       213,
   63.8853,       199,
   63.9056,       226,
   63.9258,       216,
    63.946,       193,
   63.9662,       189,
   63.9864,       196,
   64.0067,       195,
   64.0269,       216,
   64.0471,       204,
   64.0673,       217,
   64.0875,       236,
   64.1077,       195,
    64.128,       195,
   64.1482,       203,
   64.1684,       198,
   64.1886,       209,
   64.2088,       202,
   64.2291,       217,
   64.2493,       185,
   64.2695,       194,
   64.2897,       213,
   64.3099,       168,
   64.3302,       210,
   64.3504,       218,
   64.3706,       197,
   64.3908,       196,
    64.411,       188,
   64.4312,       190,
   64.4515,       193,
   64.4717,       191,
   64.4919,       199,
   64.5121,       186,
   64.5323,       209,
   64.5526,       192,
   64.5728,       197,
    64.593,       171,
   64.6132,       188,
   64.6334,       207,
   64.6537,       189,
   64.6739,       193,
   64.6941,       205,
   64.7143,       205,
   64.7345,       202,
   64.7547,       183,
    64.775,       192,
   64.7952,       206,
   64.8154,       207,
   64.8356,       193,
   64.8558,       206,
   64.8761,       173,
   64.8963,       186,
   64.9165,       168,
   64.9367,       215,
   64.9569,       201,
   64.9772,       213,
   64.9974,       193,
   65.0176,       191,
   65.0378,       182,
    65.058,       207,
   65.0782,       208,
   65.0985,       181,
   65.1187,       186,
   65.1389,       224,
   65.1591,       187,
   65.1793,       193,
   65.1996,       208,
   65.2198,       204,
     65.24,       186,
   65.2602,       206,
   65.2804,       184,
   65.3007,       208,
   65.3209,       175,
   65.3411,       179,
   65.3613,       176,
   65.3815,       193,
   65.4017,       205,
    65.422,       183,
   65.4422,       182,
   65.4624,       230,
   65.4826,       184,
   65.5028,       215,
   65.5231,       187,
   65.5433,       224,
   65.5635,       186,
   65.5837,       194,
   65.6039,       204,
   65.6242,       204,
   65.6444,       191,
   65.6646,       210,
   65.6848,       203,
    65.705,       226,
   65.7252,       196,
   65.7455,       199,
   65.7657,       198,
   65.7859,       187,
   65.8061,       182,
   65.8263,       189,
   65.8466,       186,
   65.8668,       182,
    65.887,       208,
   65.9072,       210,
   65.9274,       208,
   65.9477,       187,
   65.9679,       192,
   65.9881,       184,
   66.0083,       191,
   66.0285,       194,
   66.0487,       198,
    66.069,       207,
   66.0892,       192,
   66.1094,       207,
   66.1296,       229,
   66.1498,       206,
   66.1701,       205,
   66.1903,       224,
   66.2105,       208,
   66.2307,       251,
   66.2509,       226,
   66.2712,       247,
   66.2914,       231,
   66.3116,       254,
   66.3318,       223,
    66.352,       227,
   66.3722,       212,
   66.3925,       245,
   66.4127,       221,
   66.4329,       246,
   66.4531,       223,
   66.4733,       210,
   66.4936,       234,
   66.5138,       284,
    66.534,       293,
   66.5542,       315,
   66.5744,       345,
   66.5947,       383,
   66.6149,       395,
   66.6351,       454,
   66.6553,       438,
   66.6755,       442,
   66.6957,       486,
    66.716,       455,
   66.7362,       420,
   66.7564,       398,
   66.7766,       401,
   66.7968,       417,
   66.8171,       397,
   66.8373,       401,
   66.8575,       359,
   66.8777,       350,
   66.8979,       306,
   66.9182,       324,
   66.9384,       287,
   66.9586,       254,
   66.9788,       292,
    66.999,       272,
   67.0192,       268,
   67.0395,       240,
   67.0597,       262,
   67.0799,       273,
   67.1001,       285,
   67.1203,       249,
   67.1406,       272,
   67.1608,       239,
    67.181,       243,
   67.2012,       260,
   67.2214,       219,
   67.2417,       224,
   67.2619,       236,
   67.2821,       228,
   67.3023,       222,
   67.3225,       239,
   67.3427,       223,
    67.363,       223,
   67.3832,       240,
   67.4034,       211,
   67.4236,       254,
   67.4438,       223,
   67.4641,       231,
   67.4843,       236,
   67.5045,       265,
   67.5247,       257,
   67.5449,       267,
   67.5652,       240,
   67.5854,       245,
   67.6056,       276,
   67.6258,       258,
    67.646,       263,
   67.6663,       268,
   67.6865,       233,
   67.7067,       252,
   67.7269,       279,
   67.7471,       245,
   67.7673,       275,
   67.7876,       297,
   67.8078,       269,
    67.828,       279,
   67.8482,       275,
   67.8684,       307,
   67.8887,       303,
   67.9089,       315,
   67.9291,       273,
   67.9493,       272,
   67.9695,       267,
   67.9898,       281,
     68.01,       251,
   68.0302,       253,
   68.0504,       268,
   68.0706,       276,
   68.0908,       248,
   68.1111,       270,
   68.1313,       237,
   68.1515,       268,
   68.1717,       228,
   68.1919,       238,
   68.2122,       270,
   68.2324,       263,
   68.2526,       244,
   68.2728,       246,
    68.293,       233,
   68.3133,       265,
   68.3335,       254,
   68.3537,       262,
   68.3739,       265,
   68.3941,       266,
   68.4143,       270,
   68.4346,       293,
   68.4548,       248,
    68.475,       289,
   68.4952,       295,
   68.5154,       323,
   68.5357,       296,
   68.5559,       298,
   68.5761,       315,
   68.5963,       339,
   68.6165,       343,
   68.6368,       322,
    68.657,       384,
   68.6772,       359,
   68.6974,       336,
   68.7176,       362,
   68.7378,       370,
   68.7581,       357,
   68.7783,       355,
   68.7985,       350,
   68.8187,       360,
   68.8389,       381,
   68.8592,       385,
   68.8794,       379,
   68.8996,       333,
   68.9198,       357,
     68.94,       355,
   68.9603,       324,
   68.9805,       319,
   69.0007,       329,
   69.0209,       312,
   69.0411,       297,
   69.0613,       337,
   69.0816,       301,
   69.1018,       272,
    69.122,       289,
   69.1422,       264,
   69.1624,       325,
   69.1827,       310,
   69.2029,       282,
   69.2231,       254,
   69.2433,       284,
   69.2635,       281,
   69.2838,       265,
    69.304,       275,
   69.3242,       241,
   69.3444,       273,
   69.3646,       223,
   69.3848,       245,
   69.4051,       232,
   69.4253,       249,
   69.4455,       260,
   69.4657,       236,
   69.4859,       235,
   69.5062,       213,
   69.5264,       244,
   69.5466,       230,
   69.5668,       248,
    69.587,       233,
   69.6073,       248,
   69.6275,       237,
   69.6477,       221,
   69.6679,       247,
   69.6881,       251,
   69.7083,       223,
   69.7286,       245,
   69.7488,       222,
    69.769,       232,
   69.7892,       237,
   69.8094,       246,
   69.8297,       254,
   69.8499,       267,
   69.8701,       261,
   69.8903,       229,
   69.9105,       266,
   69.9308,       245,
    69.951,       263,
   69.9712,       271,
   69.9914,       291,
   70.0116,       297,
