;RAW4.00
[RawHeader]
Date=09/16/2019
EstimatedTotalTime=1612.92
FurtherDQLReading=0
HardwareIndicator=65519
MeasuredTotalTime=1612.92
MeasurementFlag=1
NumberOfMeasuredRanges=1
NumberOfRanges=1
Time=14:24:04

[VarInfo]
Type=USER
Flags=0
Value=Bruker Service

[VarInfo]
Type=SAMPLEID
Flags=0
Value=Commander Sample ID

[VarInfo]
Type=COMMENT
Flags=0
Value=

[VarInfo]
Type=UTF
Flags=0
Value=

[VarInfo]
Type=CREATOR
Flags=0
Value=BrmlToV4Converter

[VarInfo]
Type=CREATOR_VERSION
Flags=0
Value=7.3.0.0

[HardwareConfiguration]
AbsorptionFactor=9999
ActivateAbsorber=0
Alpha1=1.78897
Alpha2=1.79285
AlphaAverage=1.79026
AlphaRatio=0.5
Analyzer=0
Anode=Co
AntiScatteringSlit=9999
BeamOpticsFlags=0
Beta=1.62079
BetaRelativeIntensity=0
DeactivateAbsorber=0
DetectorSlit=9999
DivergenceSlit=1
GoniometerControl=0
GoniometerDiameter=282
GoniometerModel=256
GoniometerStage=7
Monochromator=0
NearSampleSlit=9999
PrimarySollerSlit=9999
SampleChanger=0
SecondSollerSlit=9999
SynchronousAxis=0
ThinFilmAttachment=9999
WaveUnit=A

[RangeHeader]
ActuallyUsedLambda=1.79026
AdditionalDetectorMask=257
DataRecordLength=4
DelayTime=0
DisplayPlaneNumber=0
EstimatedScanTime=1613
ExtraParametersMask=0
GeneratorCurrent=10
GeneratorVoltage=30
Increment=0.0202188
Increment3=0
NumberOfCompletedData=2969
NumberOfCounts=1
NumberOfDetectors=0
NumberOfDrives=2
NumberOfEncoderDrives=0
NumberOfMeasuredData=2969
NumberOfVaryingParameters=0
RangeStartTime=0
RotationSpeed=1
ScanMode=1
ScanType=Locked Coupled
SimulatedMeasConditions=0
SlitChangerIn=0
SmootingWidth=0
Start=10.0023
Steps=2969
SynchronousRotation=0
Time=82.5

[VarInfo]
Type=PSD_DISCRIM
Flags=0
Value=0.11;0.25

[PSD]
ActualTwoTheta=9999
FirstUsedChannel=0
FixedPSD=0
PSDOpening=5.00414
PSDType=5

[Drive]
DriveFlags=1
DriveName=2Theta
DriveNumber=2
DriveOffset=0
OffsetIndex=0
OscillationAmplitude=0
OscillationSpeed=0
StartPosition=10.0023

[Drive]
DriveFlags=1
DriveName=Theta
DriveNumber=1
DriveOffset=0
OffsetIndex=0
OscillationAmplitude=0
OscillationSpeed=0
StartPosition=5.00117

[Data]
     Angle,       PSD,
   10.0023,       573,
   10.0226,       539,
   10.0428,       569,
    10.063,       554,
   10.0832,       566,
   10.1034,       572,
   10.1237,       562,
   10.1439,       599,
   10.1641,       569,
   10.1843,       577,
   10.2045,       562,
   10.2247,       542,
    10.245,       562,
   10.2652,       583,
   10.2854,       592,
   10.3056,       551,
   10.3258,       575,
   10.3461,       551,
   10.3663,       520,
   10.3865,       562,
   10.4067,       559,
   10.4269,       547,
   10.4472,       601,
   10.4674,       509,
   10.4876,       513,
   10.5078,       562,
    10.528,       585,
   10.5482,       524,
   10.5685,       553,
   10.5887,       539,
   10.6089,       580,
   10.6291,       587,
   10.6493,       590,
   10.6696,       576,
   10.6898,       568,
     10.71,       547,
   10.7302,       542,
   10.7504,       566,
   10.7707,       521,
   10.7909,       548,
   10.8111,       543,
   10.8313,       559,
   10.8515,       545,
   10.8717,       507,
    10.892,       556,
   10.9122,       537,
   10.9324,       581,
   10.9526,       569,
   10.9728,       560,
   10.9931,       567,
   11.0133,       488,
   11.0335,       574,
   11.0537,       483,
   11.0739,       512,
   11.0942,       518,
   11.1144,       579,
   11.1346,       531,
   11.1548,       556,
    11.175,       547,
   11.1952,       502,
   11.2155,       517,
   11.2357,       492,
   11.2559,       537,
   11.2761,       515,
   11.2963,       531,
   11.3166,       529,
   11.3368,       559,
    11.357,       502,
   11.3772,       492,
   11.3974,       463,
   11.4177,       545,
   11.4379,       541,
   11.4581,       545,
   11.4783,       519,
   11.4985,       539,
   11.5187,       505,
    11.539,       519,
   11.5592,       527,
   11.5794,       505,
   11.5996,       569,
   11.6198,       509,
   11.6401,       551,
   11.6603,       555,
   11.6805,       533,
   11.7007,       478,
   11.7209,       489,
   11.7412,       497,
   11.7614,       509,
   11.7816,       483,
   11.8018,       507,
    11.822,       526,
   11.8422,       494,
   11.8625,       486,
   11.8827,       492,
   11.9029,       517,
   11.9231,       531,
   11.9433,       495,
   11.9636,       507,
   11.9838,       528,
    12.004,       527,
   12.0242,       464,
   12.0444,       530,
   12.0647,       520,
   12.0849,       495,
   12.1051,       511,
   12.1253,       520,
   12.1455,       499,
   12.1657,       483,
    12.186,       511,
   12.2062,       499,
   12.2264,       500,
   12.2466,       514,
   12.2668,       519,
   12.2871,       514,
   12.3073,       467,
   12.3275,       524,
   12.3477,       511,
   12.3679,       510,
   12.3882,       525,
   12.4084,       494,
   12.4286,       481,
   12.4488,       499,
    12.469,       517,
   12.4892,       480,
   12.5095,       475,
   12.5297,       485,
   12.5499,       482,
   12.5701,       523,
   12.5903,       476,
   12.6106,       492,
   12.6308,       514,
    12.651,       482,
   12.6712,       527,
   12.6914,       497,
   12.7117,       462,
   12.7319,       509,
   12.7521,       509,
   12.7723,       469,
   12.7925,       498,
   12.8127,       473,
    12.833,       481,
   12.8532,       487,
   12.8734,       501,
   12.8936,       512,
   12.9138,       492,
   12.9341,       473,
   12.9543,       452,
   12.9745,       532,
   12.9947,       493,
   13.0149,       483,
   13.0352,       469,
   13.0554,       482,
   13.0756,       501,
   13.0958,       478,
    13.116,       478,
   13.1362,       490,
   13.1565,       511,
   13.1767,       490,
   13.1969,       517,
   13.2171,       486,
   13.2373,       498,
   13.2576,       502,
   13.2778,       523,
    13.298,       475,
   13.3182,       493,
   13.3384,       475,
   13.3587,       469,
   13.3789,       481,
   13.3991,       474,
   13.4193,       489,
   13.4395,       455,
   13.4597,       466,
     13.48,       490,
   13.5002,       514,
   13.5204,       554,
   13.5406,       559,
   13.5608,       530,
   13.5811,       507,
   13.6013,       515,
   13.6215,       493,
   13.6417,       525,
   13.6619,       507,
   13.6822,       509,
   13.7024,       430,
   13.7226,       482,
   13.7428,       471,
    13.763,       477,
   13.7832,       436,
   13.8035,       467,
   13.8237,       490,
   13.8439,       460,
   13.8641,       496,
   13.8843,       436,
   13.9046,       492,
   13.9248,       457,
    13.945,       432,
   13.9652,       447,
   13.9854,       458,
   14.0057,       476,
   14.0259,       500,
   14.0461,       478,
   14.0663,       520,
   14.0865,       479,
   14.1068,       466,
    14.127,       447,
   14.1472,       447,
   14.1674,       500,
   14.1876,       455,
   14.2078,       430,
   14.2281,       469,
   14.2483,       483,
   14.2685,       464,
   14.2887,       535,
   14.3089,       468,
   14.3292,       452,
   14.3494,       462,
   14.3696,       451,
   14.3898,       518,
     14.41,       512,
   14.4303,       446,
   14.4505,       469,
   14.4707,       456,
   14.4909,       441,
   14.5111,       458,
   14.5313,       436,
   14.5516,       493,
   14.5718,       415,
    14.592,       415,
   14.6122,       463,
   14.6324,       422,
   14.6527,       437,
   14.6729,       457,
   14.6931,       471,
   14.7133,       506,
   14.7335,       411,
   14.7538,       430,
    14.774,       460,
   14.7942,       428,
   14.8144,       461,
   14.8346,       466,
   14.8548,       426,
   14.8751,       405,
   14.8953,       449,
   14.9155,       422,
   14.9357,       491,
   14.9559,       488,
   14.9762,       433,
   14.9964,       448,
   15.0166,       460,
   15.0368,       432,
    15.057,       451,
   15.0773,       485,
   15.0975,       466,
   15.1177,       500,
   15.1379,       468,
   15.1581,       397,
   15.1783,       418,
   15.1986,       424,
   15.2188,       431,
    15.239,       448,
   15.2592,       439,
   15.2794,       477,
   15.2997,       412,
   15.3199,       460,
   15.3401,       426,
   15.3603,       430,
   15.3805,       426,
   15.4008,       394,
    15.421,       451,
   15.4412,       429,
   15.4614,       406,
   15.4816,       491,
   15.5018,       447,
   15.5221,       432,
   15.5423,       428,
   15.5625,       448,
   15.5827,       458,
   15.6029,       421,
   15.6232,       391,
   15.6434,       430,
   15.6636,       449,
   15.6838,       447,
    15.704,       416,
   15.7243,       393,
   15.7445,       448,
   15.7647,       411,
   15.7849,       442,
   15.8051,       443,
   15.8253,       414,
   15.8456,       430,
   15.8658,       425,
    15.886,       437,
   15.9062,       358,
   15.9264,       448,
   15.9467,       392,
   15.9669,       431,
   15.9871,       457,
   16.0073,       402,
   16.0275,       435,
   16.0478,       433,
    16.068,       447,
   16.0882,       429,
   16.1084,       421,
   16.1286,       439,
   16.1488,       436,
   16.1691,       453,
   16.1893,       419,
   16.2095,       464,
   16.2297,       420,
   16.2499,       423,
   16.2702,       418,
   16.2904,       410,
   16.3106,       460,
   16.3308,       395,
    16.351,       400,
   16.3713,       380,
   16.3915,       421,
   16.4117,       412,
   16.4319,       382,
   16.4521,       390,
   16.4723,       413,
   16.4926,       394,
   16.5128,       402,
    16.533,       401,
   16.5532,       380,
   16.5734,       413,
   16.5937,       402,
   16.6139,       436,
   16.6341,       411,
   16.6543,       421,
   16.6745,       425,
   16.6948,       484,
    16.715,       456,
   16.7352,       413,
   16.7554,       440,
   16.7756,       444,
   16.7958,       462,
   16.8161,       445,
   16.8363,       431,
   16.8565,       372,
   16.8767,       415,
   16.8969,       433,
   16.9172,       423,
   16.9374,       396,
   16.9576,       424,
   16.9778,       389,
    16.998,       378,
   17.0183,       406,
   17.0385,       400,
   17.0587,       400,
   17.0789,       417,
   17.0991,       363,
   17.1193,       386,
   17.1396,       382,
   17.1598,       408,
     17.18,       402,
   17.2002,       394,
   17.2204,       413,
   17.2407,       380,
   17.2609,       399,
   17.2811,       387,
   17.3013,       424,
   17.3215,       420,
   17.3418,       374,
    17.362,       430,
   17.3822,       380,
   17.4024,       410,
   17.4226,       384,
   17.4428,       384,
   17.4631,       396,
   17.4833,       399,
   17.5035,       387,
   17.5237,       406,
   17.5439,       372,
   17.5642,       402,
   17.5844,       375,
   17.6046,       400,
   17.6248,       344,
    17.645,       390,
   17.6653,       391,
   17.6855,       373,
   17.7057,       372,
   17.7259,       397,
   17.7461,       343,
   17.7663,       384,
   17.7866,       379,
   17.8068,       371,
    17.827,       390,
   17.8472,       399,
   17.8674,       419,
   17.8877,       355,
   17.9079,       410,
   17.9281,       369,
   17.9483,       382,
   17.9685,       362,
   17.9888,       369,
    18.009,       388,
   18.0292,       361,
   18.0494,       372,
   18.0696,       388,
   18.0898,       390,
   18.1101,       356,
   18.1303,       355,
   18.1505,       375,
   18.1707,       374,
   18.1909,       360,
   18.2112,       380,
   18.2314,       404,
   18.2516,       386,
   18.2718,       372,
    18.292,       399,
   18.3123,       387,
   18.3325,       382,
   18.3527,       380,
   18.3729,       365,
   18.3931,       361,
   18.4133,       368,
   18.4336,       400,
   18.4538,       372,
    18.474,       402,
   18.4942,       378,
   18.5144,       353,
   18.5347,       380,
   18.5549,       415,
   18.5751,       363,
   18.5953,       383,
   18.6155,       389,
   18.6358,       355,
    18.656,       386,
   18.6762,       342,
   18.6964,       339,
   18.7166,       391,
   18.7368,       340,
   18.7571,       406,
   18.7773,       377,
   18.7975,       380,
   18.8177,       367,
   18.8379,       373,
   18.8582,       354,
   18.8784,       365,
   18.8986,       389,
   18.9188,       356,
    18.939,       366,
   18.9593,       393,
   18.9795,       408,
   18.9997,       342,
   19.0199,       378,
   19.0401,       343,
   19.0603,       372,
   19.0806,       367,
   19.1008,       371,
    19.121,       349,
   19.1412,       402,
   19.1614,       348,
   19.1817,       331,
   19.2019,       341,
   19.2221,       339,
   19.2423,       356,
   19.2625,       361,
   19.2828,       365,
    19.303,       345,
   19.3232,       383,
   19.3434,       344,
   19.3636,       331,
   19.3838,       356,
   19.4041,       355,
   19.4243,       331,
   19.4445,       335,
   19.4647,       351,
   19.4849,       380,
   19.5052,       366,
   19.5254,       385,
   19.5456,       355,
   19.5658,       315,
    19.586,       344,
   19.6063,       341,
   19.6265,       380,
   19.6467,       404,
   19.6669,       373,
   19.6871,       339,
   19.7073,       364,
   19.7276,       379,
   19.7478,       386,
    19.768,       368,
   19.7882,       351,
   19.8084,       371,
   19.8287,       324,
   19.8489,       333,
   19.8691,       353,
   19.8893,       356,
   19.9095,       380,
   19.9298,       347,
     19.95,       304,
   19.9702,       322,
   19.9904,       302,
   20.0106,       370,
   20.0308,       344,
   20.0511,       352,
   20.0713,       352,
   20.0915,       349,
   20.1117,       340,
   20.1319,       355,
   20.1522,       351,
   20.1724,       382,
   20.1926,       343,
   20.2128,       328,
    20.233,       369,
   20.2533,       334,
   20.2735,       329,
   20.2937,       354,
   20.3139,       347,
   20.3341,       357,
   20.3543,       345,
   20.3746,       372,
   20.3948,       355,
    20.415,       321,
   20.4352,       321,
   20.4554,       338,
   20.4757,       303,
   20.4959,       312,
   20.5161,       352,
   20.5363,       335,
   20.5565,       342,
   20.5768,       350,
    20.597,       297,
   20.6172,       326,
   20.6374,       346,
   20.6576,       358,
   20.6778,       374,
   20.6981,       330,
   20.7183,       351,
   20.7385,       330,
   20.7587,       352,
   20.7789,       330,
   20.7992,       345,
   20.8194,       345,
   20.8396,       340,
   20.8598,       325,
     20.88,       327,
   20.9003,       327,
   20.9205,       321,
   20.9407,       339,
   20.9609,       350,
   20.9811,       328,
   21.0013,       316,
   21.0216,       335,
   21.0418,       351,
    21.062,       390,
   21.0822,       325,
   21.1024,       327,
   21.1227,       341,
   21.1429,       314,
   21.1631,       307,
   21.1833,       340,
   21.2035,       305,
   21.2238,       316,
    21.244,       359,
   21.2642,       329,
   21.2844,       338,
   21.3046,       326,
   21.3248,       330,
   21.3451,       367,
   21.3653,       342,
   21.3855,       328,
   21.4057,       318,
   21.4259,       335,
   21.4462,       365,
   21.4664,       351,
   21.4866,       361,
   21.5068,       359,
    21.527,       356,
   21.5473,       341,
   21.5675,       357,
   21.5877,       313,
   21.6079,       331,
   21.6281,       313,
   21.6483,       354,
   21.6686,       308,
   21.6888,       358,
    21.709,       322,
   21.7292,       354,
   21.7494,       312,
   21.7697,       313,
   21.7899,       347,
   21.8101,       327,
   21.8303,       329,
   21.8505,       346,
   21.8708,       349,
    21.891,       338,
   21.9112,       321,
   21.9314,       330,
   21.9516,       347,
   21.9718,       291,
   21.9921,       315,
   22.0123,       359,
   22.0325,       330,
   22.0527,       346,
   22.0729,       328,
   22.0932,       317,
   22.1134,       327,
   22.1336,       332,
   22.1538,       317,
    22.174,       315,
   22.1943,       313,
   22.2145,       322,
   22.2347,       320,
   22.2549,       326,
   22.2751,       321,
   22.2953,       328,
   22.3156,       325,
   22.3358,       371,
    22.356,       323,
   22.3762,       361,
   22.3964,       297,
   22.4167,       316,
   22.4369,       331,
   22.4571,       314,
   22.4773,       336,
   22.4975,       345,
   22.5178,       336,
    22.538,       341,
   22.5582,       334,
   22.5784,       336,
   22.5986,       333,
   22.6188,       338,
   22.6391,       343,
   22.6593,       321,
   22.6795,       327,
   22.6997,       285,
   22.7199,       317,
   22.7402,       328,
   22.7604,       321,
   22.7806,       325,
   22.8008,       336,
    22.821,       325,
   22.8413,       343,
   22.8615,       311,
   22.8817,       326,
   22.9019,       286,
   22.9221,       323,
   22.9423,       303,
   22.9626,       319,
   22.9828,       334,
    23.003,       325,
   23.0232,       320,
   23.0434,       344,
   23.0637,       329,
   23.0839,       327,
   23.1041,       330,
   23.1243,       334,
   23.1445,       310,
   23.1648,       334,
    23.185,       289,
   23.2052,       309,
   23.2254,       310,
   23.2456,       324,
   23.2658,       315,
   23.2861,       296,
   23.3063,       316,
   23.3265,       332,
   23.3467,       320,
   23.3669,       293,
   23.3872,       321,
   23.4074,       331,
   23.4276,       334,
   23.4478,       333,
    23.468,       307,
   23.4883,       320,
   23.5085,       337,
   23.5287,       306,
   23.5489,       336,
   23.5691,       296,
   23.5893,       310,
   23.6096,       277,
   23.6298,       319,
     23.65,       338,
   23.6702,       291,
   23.6904,       325,
   23.7107,       335,
   23.7309,       322,
   23.7511,       317,
   23.7713,       306,
   23.7915,       262,
   23.8118,       341,
    23.832,       351,
   23.8522,       313,
   23.8724,       308,
   23.8926,       298,
   23.9128,       287,
   23.9331,       307,
   23.9533,       326,
   23.9735,       286,
   23.9937,       342,
   24.0139,       303,
   24.0342,       325,
   24.0544,       332,
   24.0746,       329,
   24.0948,       355,
    24.115,       362,
   24.1353,       326,
   24.1555,       327,
   24.1757,       348,
   24.1959,       329,
   24.2161,       364,
   24.2363,       363,
   24.2566,       335,
   24.2768,       307,
    24.297,       320,
   24.3172,       330,
   24.3374,       354,
   24.3577,       314,
   24.3779,       350,
   24.3981,       317,
   24.4183,       323,
   24.4385,       296,
   24.4588,       312,
    24.479,       305,
   24.4992,       312,
   24.5194,       347,
   24.5396,       366,
   24.5599,       389,
   24.5801,       417,
   24.6003,       378,
   24.6205,       407,
   24.6407,       410,
   24.6609,       374,
   24.6812,       365,
   24.7014,       352,
   24.7216,       373,
   24.7418,       344,
    24.762,       333,
   24.7823,       296,
   24.8025,       305,
   24.8227,       307,
   24.8429,       326,
   24.8631,       322,
   24.8834,       303,
   24.9036,       304,
   24.9238,       274,
    24.944,       305,
   24.9642,       304,
   24.9844,       258,
   25.0047,       288,
   25.0249,       279,
   25.0451,       284,
   25.0653,       300,
   25.0855,       296,
   25.1058,       294,
    25.126,       293,
   25.1462,       304,
   25.1664,       278,
   25.1866,       274,
   25.2069,       327,
   25.2271,       314,
   25.2473,       313,
   25.2675,       294,
   25.2877,       308,
   25.3079,       291,
   25.3282,       258,
   25.3484,       248,
   25.3686,       259,
   25.3888,       322,
    25.409,       278,
   25.4293,       285,
   25.4495,       276,
   25.4697,       327,
   25.4899,       290,
   25.5101,       268,
   25.5304,       272,
   25.5506,       295,
   25.5708,       293,
    25.591,       285,
   25.6112,       290,
   25.6314,       332,
   25.6517,       315,
   25.6719,       283,
   25.6921,       304,
   25.7123,       285,
   25.7325,       290,
   25.7528,       310,
    25.773,       279,
   25.7932,       287,
   25.8134,       290,
   25.8336,       282,
   25.8539,       304,
   25.8741,       285,
   25.8943,       286,
   25.9145,       310,
   25.9347,       294,
   25.9549,       328,
   25.9752,       291,
   25.9954,       307,
   26.0156,       363,
   26.0358,       344,
    26.056,       302,
   26.0763,       325,
   26.0965,       327,
   26.1167,       303,
   26.1369,       312,
   26.1571,       299,
   26.1774,       283,
   26.1976,       294,
   26.2178,       281,
    26.238,       268,
   26.2582,       272,
   26.2784,       287,
   26.2987,       291,
   26.3189,       267,
   26.3391,       251,
   26.3593,       259,
   26.3795,       273,
   26.3998,       296,
     26.42,       307,
   26.4402,       280,
   26.4604,       275,
   26.4806,       293,
   26.5009,       274,
   26.5211,       285,
   26.5413,       275,
   26.5615,       267,
   26.5817,       282,
   26.6019,       294,
   26.6222,       301,
   26.6424,       249,
   26.6626,       299,
   26.6828,       295,
    26.703,       301,
   26.7233,       280,
   26.7435,       287,
   26.7637,       276,
   26.7839,       282,
   26.8041,       300,
   26.8244,       286,
   26.8446,       287,
   26.8648,       288,
    26.885,       335,
   26.9052,       334,
   26.9254,       342,
   26.9457,       365,
   26.9659,       345,
   26.9861,       355,
   27.0063,       368,
   27.0265,       355,
   27.0468,       352,
    27.067,       371,
   27.0872,       328,
   27.1074,       318,
   27.1276,       346,
   27.1479,       347,
   27.1681,       397,
   27.1883,       384,
   27.2085,       405,
   27.2287,       436,
   27.2489,       402,
   27.2692,       447,
   27.2894,       431,
   27.3096,       427,
   27.3298,       442,
     27.35,       432,
   27.3703,       445,
   27.3905,       388,
   27.4107,       354,
   27.4309,       360,
   27.4511,       366,
   27.4714,       388,
   27.4916,       357,
   27.5118,       363,
    27.532,       344,
   27.5522,       341,
   27.5724,       387,
   27.5927,       336,
   27.6129,       349,
   27.6331,       334,
   27.6533,       371,
   27.6735,       416,
   27.6938,       390,
    27.714,       366,
   27.7342,       332,
   27.7544,       332,
   27.7746,       331,
   27.7949,       328,
   27.8151,       295,
   27.8353,       316,
   27.8555,       287,
   27.8757,       308,
   27.8959,       329,
   27.9162,       328,
   27.9364,       326,
   27.9566,       288,
   27.9768,       296,
    27.997,       303,
   28.0173,       290,
   28.0375,       286,
   28.0577,       305,
   28.0779,       274,
   28.0981,       252,
   28.1184,       294,
   28.1386,       287,
   28.1588,       250,
    28.179,       283,
   28.1992,       312,
   28.2194,       284,
   28.2397,       277,
   28.2599,       259,
   28.2801,       260,
   28.3003,       270,
   28.3205,       298,
   28.3408,       286,
    28.361,       284,
   28.3812,       290,
   28.4014,       285,
   28.4216,       299,
   28.4419,       313,
   28.4621,       253,
   28.4823,       318,
   28.5025,       278,
   28.5227,       298,
   28.5429,       264,
   28.5632,       293,
   28.5834,       292,
   28.6036,       302,
   28.6238,       273,
    28.644,       296,
   28.6643,       273,
   28.6845,       310,
   28.7047,       288,
   28.7249,       320,
   28.7451,       289,
   28.7654,       297,
   28.7856,       279,
   28.8058,       321,
    28.826,       278,
   28.8462,       269,
   28.8664,       325,
   28.8867,       284,
   28.9069,       273,
   28.9271,       280,
   28.9473,       273,
   28.9675,       265,
   28.9878,       254,
    29.008,       271,
   29.0282,       278,
   29.0484,       260,
   29.0686,       270,
   29.0889,       290,
   29.1091,       274,
   29.1293,       296,
   29.1495,       264,
   29.1697,       258,
   29.1899,       286,
   29.2102,       282,
   29.2304,       283,
   29.2506,       246,
   29.2708,       270,
    29.291,       278,
   29.3113,       262,
   29.3315,       259,
   29.3517,       261,
   29.3719,       265,
   29.3921,       265,
   29.4124,       293,
   29.4326,       236,
   29.4528,       273,
    29.473,       286,
   29.4932,       244,
   29.5134,       257,
   29.5337,       294,
   29.5539,       258,
   29.5741,       305,
   29.5943,       262,
   29.6145,       291,
   29.6348,       285,
    29.655,       286,
   29.6752,       256,
   29.6954,       270,
   29.7156,       270,
   29.7359,       265,
   29.7561,       282,
   29.7763,       279,
   29.7965,       306,
   29.8167,       295,
   29.8369,       335,
   29.8572,       270,
   29.8774,       282,
   29.8976,       298,
   29.9178,       312,
    29.938,       329,
   29.9583,       306,
   29.9785,       280,
   29.9987,       347,
   30.0189,       269,
   30.0391,       294,
   30.0594,       331,
   30.0796,       358,
   30.0998,       364,
     30.12,       350,
   30.1402,       350,
   30.1604,       389,
   30.1807,       386,
   30.2009,       391,
   30.2211,       402,
   30.2413,       392,
   30.2615,       471,
   30.2818,       462,
    30.302,       464,
   30.3222,       467,
   30.3424,       494,
   30.3626,       536,
   30.3829,       538,
   30.4031,       586,
   30.4233,       705,
   30.4435,       812,
   30.4637,       871,
   30.4839,      1121,
   30.5042,      1502,
   30.5244,      2033,
   30.5446,      2772,
   30.5648,      3998,
    30.585,      5034,
   30.6053,      5712,
   30.6255,      5454,
   30.6457,      4854,
   30.6659,      4236,
   30.6861,      3489,
   30.7064,      2599,
   30.7266,      1929,
   30.7468,      1513,
    30.767,      1183,
   30.7872,       931,
   30.8074,       828,
   30.8277,       721,
   30.8479,       670,
   30.8681,       623,
   30.8883,       580,
   30.9085,       543,
   30.9288,       529,
    30.949,       525,
   30.9692,       462,
   30.9894,       426,
   31.0096,       426,
   31.0299,       468,
   31.0501,       473,
   31.0703,       448,
   31.0905,       464,
   31.1107,       518,
   31.1309,       490,
   31.1512,       440,
   31.1714,       449,
   31.1916,       457,
   31.2118,       464,
    31.232,       411,
   31.2523,       393,
   31.2725,       419,
   31.2927,       376,
   31.3129,       393,
   31.3331,       421,
   31.3534,       431,
   31.3736,       419,
   31.3938,       443,
    31.414,       449,
   31.4342,       440,
   31.4544,       455,
   31.4747,       478,
   31.4949,       454,
   31.5151,       516,
   31.5353,       487,
   31.5555,       526,
   31.5758,       563,
    31.596,       620,
   31.6162,       672,
   31.6364,       702,
   31.6566,       905,
   31.6769,      1005,
   31.6971,      1285,
   31.7173,      1692,
   31.7375,      2175,
   31.7577,      2619,
   31.7779,      3143,
   31.7982,      3024,
   31.8184,      2698,
   31.8386,      2392,
   31.8588,      2064,
    31.879,      1581,
   31.8993,      1344,
   31.9195,      1051,
   31.9397,       884,
   31.9599,       733,
   31.9801,       607,
   32.0004,       582,
   32.0206,       525,
   32.0408,       513,
    32.061,       458,
   32.0812,       423,
   32.1014,       439,
   32.1217,       400,
   32.1419,       381,
   32.1621,       371,
   32.1823,       383,
   32.2025,       349,
   32.2228,       299,
    32.243,       343,
   32.2632,       290,
   32.2834,       326,
   32.3036,       310,
   32.3239,       297,
   32.3441,       317,
   32.3643,       299,
   32.3845,       295,
   32.4047,       294,
   32.4249,       310,
   32.4452,       290,
   32.4654,       268,
   32.4856,       326,
   32.5058,       296,
    32.526,       288,
   32.5463,       319,
   32.5665,       302,
   32.5867,       303,
   32.6069,       271,
   32.6271,       271,
   32.6474,       289,
   32.6676,       288,
   32.6878,       257,
    32.708,       299,
   32.7282,       287,
   32.7484,       301,
   32.7687,       280,
   32.7889,       290,
   32.8091,       263,
   32.8293,       285,
   32.8495,       283,
   32.8698,       284,
     32.89,       271,
   32.9102,       262,
   32.9304,       266,
   32.9506,       280,
   32.9709,       279,
   32.9911,       292,
   33.0113,       251,
   33.0315,       246,
   33.0517,       256,
   33.0719,       285,
   33.0922,       235,
   33.1124,       238,
   33.1326,       260,
   33.1528,       269,
    33.173,       239,
   33.1933,       246,
   33.2135,       299,
   33.2337,       254,
   33.2539,       270,
   33.2741,       266,
   33.2944,       261,
   33.3146,       275,
   33.3348,       266,
    33.355,       263,
   33.3752,       264,
   33.3954,       280,
   33.4157,       259,
   33.4359,       281,
   33.4561,       316,
   33.4763,       283,
   33.4965,       298,
   33.5168,       278,
    33.537,       246,
   33.5572,       253,
   33.5774,       244,
   33.5976,       292,
   33.6179,       289,
   33.6381,       266,
   33.6583,       236,
   33.6785,       269,
   33.6987,       274,
   33.7189,       267,
   33.7392,       269,
   33.7594,       262,
   33.7796,       296,
   33.7998,       278,
     33.82,       293,
   33.8403,       296,
   33.8605,       289,
   33.8807,       286,
   33.9009,       287,
   33.9211,       341,
   33.9414,       278,
   33.9616,       306,
   33.9818,       298,
    34.002,       355,
   34.0222,       320,
   34.0424,       317,
   34.0627,       324,
   34.0829,       347,
   34.1031,       312,
   34.1233,       307,
   34.1435,       355,
   34.1638,       304,
    34.184,       352,
   34.2042,       338,
   34.2244,       378,
   34.2446,       401,
   34.2649,       427,
   34.2851,       502,
   34.3053,       638,
   34.3255,       655,
   34.3457,       866,
   34.3659,      1003,
   34.3862,      1054,
   34.4064,      1037,
   34.4266,      1001,
   34.4468,       991,
    34.467,      1019,
   34.4873,      1016,
   34.5075,       935,
   34.5277,       884,
   34.5479,       928,
   34.5681,       900,
   34.5884,       911,
   34.6086,       978,
   34.6288,       968,
    34.649,       956,
   34.6692,      1143,
   34.6894,      1187,
   34.7097,      1254,
   34.7299,      1278,
   34.7501,      1374,
   34.7703,      1458,
   34.7905,      1533,
   34.8108,      1635,
    34.831,      1770,
   34.8512,      1752,
   34.8714,      1731,
   34.8916,      1885,
   34.9119,      1766,
   34.9321,      1687,
   34.9523,      1658,
   34.9725,      1604,
   34.9927,      1500,
   35.0129,      1369,
   35.0332,      1321,
   35.0534,      1151,
   35.0736,      1127,
   35.0938,      1102,
    35.114,       934,
   35.1343,       917,
   35.1545,       836,
   35.1747,       733,
   35.1949,       772,
   35.2151,       690,
   35.2354,       677,
   35.2556,       620,
   35.2758,       604,
    35.296,       616,
   35.3162,       571,
   35.3365,       533,
   35.3567,       544,
   35.3769,       518,
   35.3971,       540,
   35.4173,       492,
   35.4375,       454,
   35.4578,       492,
    35.478,       477,
   35.4982,       470,
   35.5184,       446,
   35.5386,       482,
   35.5589,       471,
   35.5791,       496,
   35.5993,       449,
   35.6195,       473,
   35.6397,       419,
     35.66,       373,
   35.6802,       419,
   35.7004,       420,
   35.7206,       387,
   35.7408,       355,
    35.761,       424,
   35.7813,       392,
   35.8015,       446,
   35.8217,       394,
   35.8419,       459,
   35.8621,       426,
   35.8824,       484,
   35.9026,       523,
   35.9228,       601,
    35.943,       640,
   35.9632,       652,
   35.9835,       616,
   36.0037,       635,
   36.0239,       622,
   36.0441,       595,
   36.0643,       570,
   36.0845,       562,
   36.1048,       532,
    36.125,       539,
   36.1452,       493,
   36.1654,       470,
   36.1856,       509,
   36.2059,       469,
   36.2261,       454,
   36.2463,       395,
   36.2665,       472,
   36.2867,       524,
    36.307,       526,
   36.3272,       568,
   36.3474,       602,
   36.3676,       519,
   36.3878,       473,
    36.408,       445,
   36.4283,       471,
   36.4485,       369,
   36.4687,       353,
   36.4889,       318,
   36.5091,       324,
   36.5294,       255,
   36.5496,       295,
   36.5698,       287,
     36.59,       281,
   36.6102,       296,
   36.6305,       274,
   36.6507,       303,
   36.6709,       289,
   36.6911,       269,
   36.7113,       307,
   36.7315,       287,
   36.7518,       320,
    36.772,       289,
   36.7922,       266,
   36.8124,       299,
   36.8326,       287,
   36.8529,       321,
   36.8731,       299,
   36.8933,       314,
   36.9135,       336,
   36.9337,       375,
    36.954,       431,
   36.9742,       489,
   36.9944,       568,
   37.0146,       708,
   37.0348,       785,
    37.055,       850,
   37.0753,       836,
   37.0955,       818,
   37.1157,       735,
   37.1359,       745,
   37.1561,       632,
   37.1764,       602,
   37.1966,       489,
   37.2168,       457,
    37.237,       428,
   37.2572,       352,
   37.2775,       318,
   37.2977,       290,
   37.3179,       328,
   37.3381,       329,
   37.3583,       309,
   37.3785,       304,
   37.3988,       324,
    37.419,       295,
   37.4392,       283,
   37.4594,       264,
   37.4796,       289,
   37.4999,       292,
   37.5201,       260,
   37.5403,       263,
   37.5605,       278,
   37.5807,       261,
    37.601,       269,
   37.6212,       254,
   37.6414,       265,
   37.6616,       268,
   37.6818,       269,
    37.702,       257,
   37.7223,       276,
   37.7425,       272,
   37.7627,       268,
   37.7829,       282,
   37.8031,       270,
   37.8234,       294,
   37.8436,       296,
   37.8638,       256,
    37.884,       288,
   37.9042,       264,
   37.9245,       275,
   37.9447,       262,
   37.9649,       315,
   37.9851,       284,
   38.0053,       302,
   38.0255,       297,
   38.0458,       328,
    38.066,       321,
   38.0862,       349,
   38.1064,       361,
   38.1266,       349,
   38.1469,       365,
   38.1671,       397,
   38.1873,       465,
   38.2075,       498,
   38.2277,       580,
    38.248,       613,
   38.2682,       707,
   38.2884,       718,
   38.3086,       643,
   38.3288,       608,
    38.349,       636,
   38.3693,       548,
   38.3895,       537,
   38.4097,       483,
   38.4299,       414,
   38.4501,       414,
   38.4704,       471,
   38.4906,       482,
   38.5108,       510,
    38.531,       581,
   38.5512,       582,
   38.5715,       701,
   38.5917,       744,
   38.6119,       973,
   38.6321,      1213,
   38.6523,      1653,
   38.6725,      2149,
   38.6928,      2632,
    38.713,      2978,
   38.7332,      2744,
   38.7534,      2523,
   38.7736,      2318,
   38.7939,      2111,
   38.8141,      1748,
   38.8343,      1364,
   38.8545,      1083,
   38.8747,       874,
    38.895,       689,
   38.9152,       567,
   38.9354,       531,
   38.9556,       452,
   38.9758,       400,
    38.996,       358,
   39.0163,       409,
   39.0365,       387,
   39.0567,       351,
   39.0769,       313,
   39.0971,       348,
   39.1174,       325,
   39.1376,       327,
   39.1578,       325,
    39.178,       304,
   39.1982,       302,
   39.2185,       287,
   39.2387,       301,
   39.2589,       268,
   39.2791,       256,
   39.2993,       290,
   39.3195,       281,
   39.3398,       271,
     39.36,       221,
   39.3802,       248,
   39.4004,       255,
   39.4206,       255,
   39.4409,       252,
   39.4611,       243,
   39.4813,       241,
   39.5015,       242,
   39.5217,       251,
    39.542,       233,
   39.5622,       260,
   39.5824,       265,
   39.6026,       244,
   39.6228,       236,
    39.643,       229,
   39.6633,       234,
   39.6835,       232,
   39.7037,       239,
   39.7239,       213,
   39.7441,       222,
   39.7644,       215,
   39.7846,       258,
   39.8048,       213,
    39.825,       274,
   39.8452,       260,
   39.8655,       248,
   39.8857,       251,
   39.9059,       248,
   39.9261,       237,
   39.9463,       239,
   39.9665,       266,
   39.9868,       267,
    40.007,       285,
   40.0272,       265,
   40.0474,       217,
   40.0676,       238,
   40.0879,       245,
   40.1081,       226,
   40.1283,       242,
   40.1485,       236,
   40.1687,       236,
    40.189,       221,
   40.2092,       223,
   40.2294,       247,
   40.2496,       221,
   40.2698,       239,
     40.29,       227,
   40.3103,       202,
   40.3305,       238,
   40.3507,       229,
   40.3709,       226,
   40.3911,       233,
   40.4114,       225,
   40.4316,       240,
   40.4518,       216,
    40.472,       252,
   40.4922,       240,
   40.5125,       229,
   40.5327,       288,
   40.5529,       238,
   40.5731,       282,
   40.5933,       234,
   40.6135,       202,
   40.6338,       227,
    40.654,       249,
   40.6742,       219,
   40.6944,       242,
   40.7146,       251,
   40.7349,       239,
   40.7551,       230,
   40.7753,       247,
   40.7955,       253,
   40.8157,       235,
    40.836,       230,
   40.8562,       232,
   40.8764,       217,
   40.8966,       236,
   40.9168,       222,
    40.937,       239,
   40.9573,       251,
   40.9775,       222,
   40.9977,       228,
   41.0179,       213,
   41.0381,       246,
   41.0584,       212,
   41.0786,       252,
   41.0988,       244,
    41.119,       225,
   41.1392,       225,
   41.1595,       260,
   41.1797,       233,
   41.1999,       220,
   41.2201,       227,
   41.2403,       238,
   41.2605,       251,
   41.2808,       214,
    41.301,       246,
   41.3212,       252,
   41.3414,       256,
   41.3616,       216,
   41.3819,       228,
   41.4021,       275,
   41.4223,       239,
   41.4425,       235,
   41.4627,       223,
    41.483,       259,
   41.5032,       263,
   41.5234,       232,
   41.5436,       236,
   41.5638,       240,
    41.584,       234,
   41.6043,       221,
   41.6245,       269,
   41.6447,       252,
   41.6649,       241,
   41.6851,       265,
   41.7054,       274,
   41.7256,       276,
   41.7458,       259,
    41.766,       325,
   41.7862,       294,
   41.8065,       271,
   41.8267,       289,
   41.8469,       322,
   41.8671,       282,
   41.8873,       302,
   41.9075,       328,
   41.9278,       322,
    41.948,       353,
   41.9682,       355,
   41.9884,       353,
   42.0086,       431,
   42.0289,       404,
   42.0491,       446,
   42.0693,       474,
   42.0895,       546,
   42.1097,       683,
     42.13,       785,
   42.1502,      1025,
   42.1704,      1128,
   42.1906,      1458,
   42.2108,      1641,
    42.231,      1726,
   42.2513,      1701,
   42.2715,      1628,
   42.2917,      1784,
   42.3119,      1809,
   42.3321,      1661,
   42.3524,      1433,
   42.3726,      1250,
   42.3928,      1114,
    42.413,      1058,
   42.4332,       897,
   42.4535,       798,
   42.4737,       689,
   42.4939,       639,
   42.5141,       538,
   42.5343,       560,
   42.5545,       499,
   42.5748,       521,
    42.595,       548,
   42.6152,       497,
   42.6354,       504,
   42.6556,       460,
   42.6759,       422,
   42.6961,       441,
   42.7163,       495,
   42.7365,       442,
   42.7567,       391,
    42.777,       404,
   42.7972,       428,
   42.8174,       373,
   42.8376,       371,
   42.8578,       389,
    42.878,       360,
   42.8983,       371,
   42.9185,       355,
   42.9387,       334,
   42.9589,       300,
   42.9791,       316,
   42.9994,       310,
   43.0196,       325,
   43.0398,       305,
     43.06,       301,
   43.0802,       282,
   43.1005,       294,
   43.1207,       304,
   43.1409,       304,
   43.1611,       291,
   43.1813,       276,
   43.2015,       274,
   43.2218,       330,
    43.242,       280,
   43.2622,       320,
   43.2824,       291,
   43.3026,       296,
   43.3229,       290,
   43.3431,       317,
   43.3633,       293,
   43.3835,       354,
   43.4037,       312,
    43.424,       324,
   43.4442,       343,
   43.4644,       366,
   43.4846,       392,
   43.5048,       439,
    43.525,       535,
   43.5453,       611,
   43.5655,       726,
   43.5857,       834,
   43.6059,       844,
   43.6261,       909,
   43.6464,       818,
   43.6666,       833,
   43.6868,       783,
    43.707,       695,
   43.7272,       694,
   43.7475,       574,
   43.7677,       522,
   43.7879,       428,
   43.8081,       425,
   43.8283,       378,
   43.8485,       387,
   43.8688,       381,
    43.889,       327,
   43.9092,       318,
   43.9294,       355,
   43.9496,       356,
   43.9699,       340,
   43.9901,       321,
   44.0103,       306,
   44.0305,       334,
   44.0507,       374,
    44.071,       372,
   44.0912,       352,
   44.1114,       383,
   44.1316,       419,
   44.1518,       456,
    44.172,       471,
   44.1923,       534,
   44.2125,       618,
   44.2327,       825,
   44.2529,      1021,
   44.2731,      1296,
   44.2934,      1690,
   44.3136,      2050,
   44.3338,      2092,
    44.354,      1951,
   44.3742,      1793,
   44.3945,      1668,
   44.4147,      1598,
   44.4349,      1414,
   44.4551,      1241,
   44.4753,       956,
   44.4955,       795,
   44.5158,       677,
    44.536,       546,
   44.5562,       537,
   44.5764,       443,
   44.5966,       445,
   44.6169,       454,
   44.6371,       396,
   44.6573,       413,
   44.6775,       399,
   44.6977,       405,
    44.718,       407,
   44.7382,       395,
   44.7584,       436,
   44.7786,       444,
   44.7988,       426,
    44.819,       493,
   44.8393,       552,
   44.8595,       619,
   44.8797,       724,
   44.8999,       875,
   44.9201,      1067,
   44.9404,      1268,
   44.9606,      1402,
   44.9808,      1362,
    45.001,      1289,
   45.0212,      1195,
   45.0415,      1200,
   45.0617,      1085,
   45.0819,      1078,
   45.1021,      1048,
   45.1223,      1011,
   45.1425,      1010,
   45.1628,      1139,
    45.183,      1213,
   45.2032,      1207,
   45.2234,      1028,
   45.2436,      1051,
   45.2639,       912,
   45.2841,       889,
   45.3043,       785,
   45.3245,       708,
   45.3447,       630,
    45.365,       480,
   45.3852,       458,
   45.4054,       357,
   45.4256,       325,
   45.4458,       327,
    45.466,       296,
   45.4863,       301,
   45.5065,       317,
   45.5267,       286,
   45.5469,       275,
   45.5671,       253,
   45.5874,       253,
   45.6076,       245,
   45.6278,       276,
    45.648,       234,
   45.6682,       215,
   45.6885,       216,
   45.7087,       214,
   45.7289,       221,
   45.7491,       234,
   45.7693,       217,
   45.7895,       238,
   45.8098,       217,
     45.83,       259,
   45.8502,       210,
   45.8704,       203,
   45.8906,       223,
   45.9109,       212,
   45.9311,       202,
   45.9513,       240,
   45.9715,       231,
   45.9917,       238,
    46.012,       208,
   46.0322,       197,
   46.0524,       244,
   46.0726,       233,
   46.0928,       226,
   46.1131,       249,
   46.1333,       252,
   46.1535,       283,
   46.1737,       292,
   46.1939,       305,
   46.2141,       308,
   46.2344,       304,
   46.2546,       323,
   46.2748,       342,
    46.295,       341,
   46.3152,       317,
   46.3355,       331,
   46.3557,       311,
   46.3759,       312,
   46.3961,       311,
   46.4163,       336,
   46.4366,       306,
   46.4568,       303,
    46.477,       311,
   46.4972,       317,
   46.5174,       312,
   46.5376,       327,
   46.5579,       295,
   46.5781,       338,
   46.5983,       360,
   46.6185,       361,
   46.6387,       326,
    46.659,       390,
   46.6792,       361,
   46.6994,       391,
   46.7196,       384,
   46.7398,       410,
   46.7601,       438,
   46.7803,       432,
   46.8005,       403,
   46.8207,       413,
   46.8409,       462,
   46.8611,       444,
   46.8814,       416,
   46.9016,       411,
   46.9218,       406,
    46.942,       382,
   46.9622,       412,
   46.9825,       430,
   47.0027,       349,
   47.0229,       362,
   47.0431,       384,
   47.0633,       349,
   47.0836,       360,
   47.1038,       344,
    47.124,       320,
   47.1442,       296,
   47.1644,       299,
   47.1846,       300,
   47.2049,       311,
   47.2251,       291,
   47.2453,       272,
   47.2655,       265,
   47.2857,       283,
    47.306,       241,
   47.3262,       250,
   47.3464,       275,
   47.3666,       246,
   47.3868,       251,
   47.4071,       263,
   47.4273,       267,
   47.4475,       251,
   47.4677,       236,
   47.4879,       246,
   47.5081,       256,
   47.5284,       225,
   47.5486,       251,
   47.5688,       278,
    47.589,       248,
   47.6092,       272,
   47.6295,       283,
   47.6497,       262,
   47.6699,       273,
   47.6901,       260,
   47.7103,       252,
   47.7306,       264,
   47.7508,       284,
    47.771,       262,
   47.7912,       247,
   47.8114,       253,
   47.8316,       246,
   47.8519,       263,
   47.8721,       291,
   47.8923,       266,
   47.9125,       277,
   47.9327,       266,
    47.953,       304,
   47.9732,       334,
   47.9934,       314,
   48.0136,       347,
   48.0338,       336,
   48.0541,       362,
   48.0743,       352,
   48.0945,       386,
   48.1147,       374,
   48.1349,       400,
   48.1551,       465,
   48.1754,       536,
   48.1956,       574,
   48.2158,       694,
    48.236,       771,
   48.2562,       784,
   48.2765,       719,
   48.2967,       703,
   48.3169,       654,
   48.3371,       655,
   48.3573,       643,
   48.3776,       548,
   48.3978,       551,
    48.418,       531,
   48.4382,       420,
   48.4584,       379,
   48.4786,       311,
   48.4989,       338,
   48.5191,       294,
   48.5393,       296,
   48.5595,       289,
   48.5797,       229,
      48.6,       257,
   48.6202,       249,
   48.6404,       233,
   48.6606,       230,
   48.6808,       255,
   48.7011,       232,
   48.7213,       219,
   48.7415,       223,
   48.7617,       237,
   48.7819,       218,
   48.8021,       228,
   48.8224,       219,
   48.8426,       224,
   48.8628,       230,
    48.883,       212,
   48.9032,       204,
   48.9235,       212,
   48.9437,       218,
   48.9639,       229,
   48.9841,       189,
   49.0043,       208,
   49.0246,       216,
   49.0448,       205,
    49.065,       202,
   49.0852,       192,
   49.1054,       195,
   49.1256,       238,
   49.1459,       218,
   49.1661,       199,
   49.1863,       208,
   49.2065,       183,
   49.2267,       199,
    49.247,       217,
   49.2672,       194,
   49.2874,       185,
   49.3076,       204,
   49.3278,       202,
   49.3481,       216,
   49.3683,       198,
   49.3885,       172,
   49.4087,       208,
   49.4289,       182,
   49.4491,       186,
   49.4694,       207,
   49.4896,       204,
   49.5098,       177,
     49.53,       214,
   49.5502,       189,
   49.5705,       224,
   49.5907,       216,
   49.6109,       208,
   49.6311,       204,
   49.6513,       190,
   49.6716,       193,
   49.6918,       201,
    49.712,       197,
   49.7322,       219,
   49.7524,       194,
   49.7726,       211,
   49.7929,       209,
   49.8131,       208,
   49.8333,       230,
   49.8535,       227,
   49.8737,       206,
    49.894,       197,
   49.9142,       232,
   49.9344,       212,
   49.9546,       237,
   49.9748,       204,
   49.9951,       217,
   50.0153,       237,
   50.0355,       268,
   50.0557,       282,
   50.0759,       241,
   50.0961,       272,
   50.1164,       304,
   50.1366,       325,
   50.1568,       339,
    50.177,       353,
   50.1972,       416,
   50.2175,       475,
   50.2377,       630,
   50.2579,       850,
   50.2781,      1039,
   50.2983,      1210,
   50.3186,      1133,
   50.3388,      1014,
    50.359,       954,
   50.3792,       940,
   50.3994,       864,
   50.4196,       823,
   50.4399,       758,
   50.4601,       582,
   50.4803,       539,
   50.5005,       454,
   50.5207,       410,
    50.541,       319,
   50.5612,       313,
   50.5814,       346,
   50.6016,       308,
   50.6218,       284,
   50.6421,       313,
   50.6623,       318,
   50.6825,       307,
   50.7027,       297,
   50.7229,       321,
   50.7431,       333,
   50.7634,       337,
   50.7836,       302,
   50.8038,       296,
    50.824,       318,
   50.8442,       289,
   50.8645,       313,
   50.8847,       281,
   50.9049,       265,
   50.9251,       289,
   50.9453,       286,
   50.9656,       296,
   50.9858,       282,
    51.006,       289,
   51.0262,       326,
   51.0464,       328,
   51.0666,       327,
   51.0869,       313,
   51.1071,       358,
   51.1273,       336,
   51.1475,       367,
   51.1677,       388,
    51.188,       330,
   51.2082,       362,
   51.2284,       374,
   51.2486,       395,
   51.2688,       377,
   51.2891,       397,
   51.3093,       381,
   51.3295,       380,
   51.3497,       427,
   51.3699,       410,
   51.3901,       386,
   51.4104,       370,
   51.4306,       343,
   51.4508,       361,
    51.471,       381,
   51.4912,       339,
   51.5115,       316,
   51.5317,       301,
   51.5519,       323,
   51.5721,       314,
   51.5923,       329,
   51.6126,       331,
   51.6328,       262,
    51.653,       262,
   51.6732,       281,
   51.6934,       241,
   51.7136,       289,
   51.7339,       251,
   51.7541,       242,
   51.7743,       247,
   51.7945,       241,
   51.8147,       237,
    51.835,       237,
   51.8552,       254,
   51.8754,       220,
   51.8956,       216,
   51.9158,       236,
   51.9361,       242,
   51.9563,       226,
   51.9765,       222,
   51.9967,       242,
   52.0169,       226,
   52.0371,       227,
   52.0574,       219,
   52.0776,       234,
   52.0978,       225,
    52.118,       231,
   52.1382,       213,
   52.1585,       209,
   52.1787,       213,
   52.1989,       212,
   52.2191,       215,
   52.2393,       222,
   52.2596,       220,
   52.2798,       228,
      52.3,       239,
   52.3202,       229,
   52.3404,       213,
   52.3606,       214,
   52.3809,       239,
   52.4011,       216,
   52.4213,       211,
   52.4415,       234,
   52.4617,       232,
    52.482,       250,
   52.5022,       233,
   52.5224,       215,
   52.5426,       240,
   52.5628,       240,
   52.5831,       233,
   52.6033,       237,
   52.6235,       227,
   52.6437,       231,
   52.6639,       251,
   52.6841,       256,
   52.7044,       237,
   52.7246,       235,
   52.7448,       248,
    52.765,       216,
   52.7852,       242,
   52.8055,       218,
   52.8257,       236,
   52.8459,       215,
   52.8661,       200,
   52.8863,       231,
   52.9066,       247,
   52.9268,       223,
    52.947,       216,
   52.9672,       226,
   52.9874,       247,
   53.0076,       228,
   53.0279,       260,
   53.0481,       280,
   53.0683,       264,
   53.0885,       231,
   53.1087,       285,
    53.129,       243,
   53.1492,       292,
   53.1694,       300,
   53.1896,       268,
   53.2098,       293,
   53.2301,       316,
   53.2503,       349,
   53.2705,       392,
   53.2907,       460,
   53.3109,       489,
   53.3311,       562,
   53.3514,       577,
   53.3716,       602,
   53.3918,       605,
    53.412,       610,
   53.4322,       614,
   53.4525,       654,
   53.4727,       596,
   53.4929,       621,
   53.5131,       530,
   53.5333,       550,
   53.5536,       568,
   53.5738,       525,
    53.594,       509,
   53.6142,       574,
   53.6344,       582,
   53.6546,       594,
   53.6749,       684,
   53.6951,       828,
   53.7153,       936,
   53.7355,      1240,
   53.7557,      1649,
    53.776,      2223,
   53.7962,      2793,
   53.8164,      3334,
   53.8366,      3254,
   53.8568,      2898,
   53.8771,      2457,
   53.8973,      2304,
   53.9175,      2278,
   53.9377,      2182,
   53.9579,      2015,
   53.9781,      1752,
   53.9984,      1371,
   54.0186,      1088,
   54.0388,       822,
    54.059,       783,
   54.0792,       621,
   54.0995,       556,
   54.1197,       469,
   54.1399,       448,
   54.1601,       393,
   54.1803,       425,
   54.2006,       358,
   54.2208,       358,
    54.241,       351,
   54.2612,       288,
   54.2814,       286,
   54.3016,       287,
   54.3219,       286,
   54.3421,       302,
   54.3623,       259,
   54.3825,       263,
   54.4027,       246,
    54.423,       242,
   54.4432,       260,
   54.4634,       241,
   54.4836,       248,
   54.5038,       229,
   54.5241,       241,
   54.5443,       230,
   54.5645,       214,
   54.5847,       238,
   54.6049,       243,
   54.6251,       251,
   54.6454,       228,
   54.6656,       234,
   54.6858,       224,
    54.706,       215,
   54.7262,       210,
   54.7465,       216,
   54.7667,       212,
   54.7869,       237,
   54.8071,       225,
   54.8273,       208,
   54.8476,       225,
   54.8678,       225,
    54.888,       213,
   54.9082,       228,
   54.9284,       205,
   54.9486,       218,
   54.9689,       246,
   54.9891,       225,
   55.0093,       208,
   55.0295,       195,
   55.0497,       177,
     55.07,       218,
   55.0902,       183,
   55.1104,       220,
   55.1306,       206,
   55.1508,       173,
   55.1711,       226,
   55.1913,       203,
   55.2115,       209,
   55.2317,       211,
   55.2519,       225,
   55.2721,       214,
   55.2924,       219,
   55.3126,       234,
   55.3328,       218,
    55.353,       232,
   55.3732,       267,
   55.3935,       252,
   55.4137,       250,
   55.4339,       228,
   55.4541,       271,
   55.4743,       238,
   55.4946,       257,
   55.5148,       243,
    55.535,       241,
   55.5552,       258,
   55.5754,       229,
   55.5956,       241,
   55.6159,       249,
   55.6361,       251,
   55.6563,       243,
   55.6765,       261,
   55.6967,       241,
    55.717,       269,
   55.7372,       315,
   55.7574,       308,
   55.7776,       330,
   55.7978,       312,
   55.8181,       364,
   55.8383,       336,
   55.8585,       367,
   55.8787,       367,
   55.8989,       394,
   55.9191,       362,
   55.9394,       332,
   55.9596,       349,
   55.9798,       386,
        56,       375,
   56.0202,       382,
   56.0405,       334,
   56.0607,       401,
   56.0809,       366,
   56.1011,       351,
   56.1213,       341,
   56.1416,       371,
   56.1618,       349,
    56.182,       294,
   56.2022,       357,
   56.2224,       365,
   56.2426,       372,
   56.2629,       349,
   56.2831,       365,
   56.3033,       362,
   56.3235,       423,
   56.3437,       385,
    56.364,       392,
   56.3842,       385,
   56.4044,       414,
   56.4246,       381,
   56.4448,       444,
   56.4651,       425,
   56.4853,       441,
   56.5055,       441,
   56.5257,       481,
   56.5459,       462,
   56.5661,       554,
   56.5864,       583,
   56.6066,       559,
   56.6268,       628,
    56.647,       650,
   56.6672,       749,
   56.6875,       855,
   56.7077,      1061,
   56.7279,      1183,
   56.7481,      1358,
   56.7683,      1512,
   56.7886,      1601,
   56.8088,      1504,
    56.829,      1561,
   56.8492,      1514,
   56.8694,      1586,
   56.8897,      1590,
   56.9099,      1718,
   56.9301,      1636,
   56.9503,      1527,
   56.9705,      1322,
   56.9907,      1231,
    57.011,      1189,
   57.0312,      1095,
   57.0514,      1056,
   57.0716,       969,
   57.0918,       812,
   57.1121,       752,
   57.1323,       697,
   57.1525,       610,
   57.1727,       558,
   57.1929,       525,
   57.2132,       485,
   57.2334,       477,
   57.2536,       442,
   57.2738,       438,
    57.294,       477,
   57.3142,       412,
   57.3345,       414,
   57.3547,       384,
   57.3749,       365,
   57.3951,       365,
   57.4153,       345,
   57.4356,       382,
   57.4558,       387,
    57.476,       358,
   57.4962,       322,
   57.5164,       359,
   57.5367,       356,
   57.5569,       331,
   57.5771,       295,
   57.5973,       361,
   57.6175,       348,
   57.6377,       354,
    57.658,       375,
   57.6782,       350,
   57.6984,       397,
   57.7186,       387,
   57.7388,       377,
   57.7591,       371,
   57.7793,       369,
   57.7995,       404,
   57.8197,       408,
   57.8399,       408,
   57.8602,       394,
   57.8804,       416,
   57.9006,       413,
   57.9208,       387,
    57.941,       391,
   57.9612,       386,
   57.9815,       386,
   58.0017,       402,
   58.0219,       393,
   58.0421,       408,
   58.0623,       333,
   58.0826,       367,
   58.1028,       334,
    58.123,       341,
   58.1432,       393,
   58.1634,       347,
   58.1837,       339,
   58.2039,       341,
   58.2241,       325,
   58.2443,       318,
   58.2645,       330,
   58.2847,       299,
    58.305,       328,
   58.3252,       301,
   58.3454,       319,
   58.3656,       284,
   58.3858,       308,
   58.4061,       297,
   58.4263,       264,
   58.4465,       285,
   58.4667,       283,
   58.4869,       288,
   58.5072,       322,
   58.5274,       303,
   58.5476,       277,
   58.5678,       292,
    58.588,       314,
   58.6082,       353,
   58.6285,       334,
   58.6487,       358,
   58.6689,       329,
   58.6891,       351,
   58.7093,       343,
   58.7296,       341,
   58.7498,       353,
     58.77,       362,
   58.7902,       363,
   58.8104,       327,
   58.8307,       375,
   58.8509,       375,
   58.8711,       371,
   58.8913,       388,
   58.9115,       418,
   58.9317,       421,
    58.952,       534,
   58.9722,       593,
   58.9924,       677,
   59.0126,       854,
   59.0328,      1098,
   59.0531,      1168,
   59.0733,      1303,
   59.0935,      1269,
   59.1137,      1221,
   59.1339,      1056,
   59.1542,       994,
   59.1744,       898,
   59.1946,       981,
   59.2148,       893,
    59.235,       799,
   59.2552,       735,
   59.2755,       603,
   59.2957,       560,
   59.3159,       452,
   59.3361,       436,
   59.3563,       390,
   59.3766,       348,
   59.3968,       314,
    59.417,       291,
   59.4372,       300,
   59.4574,       281,
   59.4777,       276,
   59.4979,       241,
   59.5181,       230,
   59.5383,       251,
   59.5585,       255,
   59.5787,       224,
    59.599,       250,
   59.6192,       216,
   59.6394,       234,
   59.6596,       225,
   59.6798,       256,
   59.7001,       230,
   59.7203,       231,
   59.7405,       254,
   59.7607,       230,
   59.7809,       225,
   59.8012,       247,
   59.8214,       245,
   59.8416,       211,
   59.8618,       230,
    59.882,       216,
   59.9022,       212,
   59.9225,       230,
   59.9427,       210,
   59.9629,       194,
   59.9831,       236,
   60.0033,       212,
   60.0236,       250,
   60.0438,       235,
    60.064,       217,
   60.0842,       226,
   60.1044,       227,
   60.1247,       221,
   60.1449,       220,
   60.1651,       237,
   60.1853,       204,
   60.2055,       200,
   60.2257,       203,
    60.246,       205,
   60.2662,       202,
   60.2864,       200,
   60.3066,       211,
   60.3268,       180,
   60.3471,       180,
   60.3673,       174,
   60.3875,       203,
   60.4077,       176,
   60.4279,       191,
   60.4482,       192,
   60.4684,       191,
   60.4886,       191,
   60.5088,       168,
    60.529,       164,
   60.5492,       180,
   60.5695,       162,
   60.5897,       171,
   60.6099,       190,
   60.6301,       171,
   60.6503,       178,
   60.6706,       195,
   60.6908,       171,
    60.711,       180,
   60.7312,       169,
   60.7514,       152,
   60.7717,       186,
   60.7919,       176,
   60.8121,       197,
   60.8323,       198,
   60.8525,       184,
   60.8727,       189,
    60.893,       200,
   60.9132,       170,
   60.9334,       207,
   60.9536,       204,
   60.9738,       177,
   60.9941,       197,
   61.0143,       207,
   61.0345,       228,
   61.0547,       259,
   61.0749,       251,
   61.0952,       293,
   61.1154,       291,
   61.1356,       290,
   61.1558,       301,
    61.176,       275,
   61.1962,       261,
   61.2165,       271,
   61.2367,       260,
   61.2569,       245,
   61.2771,       246,
   61.2973,       255,
   61.3176,       235,
   61.3378,       240,
    61.358,       232,
   61.3782,       246,
   61.3984,       262,
   61.4187,       263,
   61.4389,       261,
   61.4591,       275,
   61.4793,       243,
   61.4995,       267,
   61.5197,       263,
     61.54,       294,
   61.5602,       289,
   61.5804,       342,
   61.6006,       413,
   61.6208,       453,
   61.6411,       549,
   61.6613,       655,
   61.6815,       820,
   61.7017,       992,
   61.7219,      1216,
   61.7422,      1312,
   61.7624,      1330,
   61.7826,      1239,
   61.8028,      1110,
    61.823,       993,
   61.8432,       940,
   61.8635,       901,
   61.8837,       943,
   61.9039,       860,
   61.9241,       782,
   61.9443,       662,
   61.9646,       587,
   61.9848,       494,
    62.005,       459,
   62.0252,       391,
   62.0454,       370,
   62.0657,       332,
   62.0859,       331,
   62.1061,       297,
   62.1263,       295,
   62.1465,       320,
   62.1667,       284,
    62.187,       290,
   62.2072,       288,
   62.2274,       350,
   62.2476,       376,
   62.2678,       391,
   62.2881,       480,
   62.3083,       530,
   62.3285,       616,
   62.3487,       613,
   62.3689,       692,
   62.3892,       721,
   62.4094,       798,
   62.4296,       804,
   62.4498,       870,
     62.47,       778,
   62.4902,       734,
   62.5105,       679,
   62.5307,       631,
   62.5509,       545,
   62.5711,       516,
   62.5913,       509,
   62.6116,       461,
   62.6318,       434,
    62.652,       382,
   62.6722,       340,
   62.6924,       321,
   62.7127,       261,
   62.7329,       283,
   62.7531,       231,
   62.7733,       233,
   62.7935,       225,
   62.8137,       211,
    62.834,       196,
   62.8542,       198,
   62.8744,       211,
   62.8946,       210,
   62.9148,       185,
   62.9351,       195,
   62.9553,       198,
   62.9755,       168,
   62.9957,       179,
   63.0159,       176,
   63.0362,       148,
   63.0564,       153,
   63.0766,       184,
   63.0968,       171,
    63.117,       157,
   63.1372,       179,
   63.1575,       186,
   63.1777,       165,
   63.1979,       155,
   63.2181,       178,
   63.2383,       187,
   63.2586,       169,
   63.2788,       160,
    63.299,       169,
   63.3192,       166,
   63.3394,       171,
   63.3597,       165,
   63.3799,       199,
   63.4001,       187,
   63.4203,       177,
   63.4405,       171,
   63.4607,       181,
    63.481,       189,
   63.5012,       213,
   63.5214,       214,
   63.5416,       237,
   63.5618,       239,
   63.5821,       238,
   63.6023,       233,
   63.6225,       223,
   63.6427,       193,
   63.6629,       201,
   63.6832,       209,
   63.7034,       183,
   63.7236,       217,
   63.7438,       178,
    63.764,       190,
   63.7842,       174,
   63.8045,       167,
   63.8247,       152,
   63.8449,       173,
   63.8651,       161,
   63.8853,       153,
   63.9056,       150,
   63.9258,       141,
    63.946,       154,
   63.9662,       141,
   63.9864,       153,
   64.0067,       159,
   64.0269,       149,
   64.0471,       163,
   64.0673,       145,
   64.0875,       151,
   64.1077,       143,
    64.128,       156,
   64.1482,       150,
   64.1684,       151,
   64.1886,       151,
   64.2088,       143,
   64.2291,       130,
   64.2493,       158,
   64.2695,       139,
   64.2897,       154,
   64.3099,       143,
   64.3302,       123,
   64.3504,       160,
   64.3706,       153,
   64.3908,       155,
    64.411,       127,
   64.4312,       146,
   64.4515,       153,
   64.4717,       122,
   64.4919,       149,
   64.5121,       139,
   64.5323,       131,
   64.5526,       129,
   64.5728,       151,
    64.593,       147,
   64.6132,       149,
   64.6334,       150,
   64.6537,       136,
   64.6739,       166,
   64.6941,       137,
   64.7143,       115,
   64.7345,       161,
   64.7547,       134,
    64.775,       143,
   64.7952,       150,
   64.8154,       141,
   64.8356,       135,
   64.8558,       136,
   64.8761,       138,
   64.8963,       128,
   64.9165,       122,
   64.9367,       148,
   64.9569,       132,
   64.9772,       120,
   64.9974,       153,
   65.0176,       128,
   65.0378,       130,
    65.058,       119,
   65.0782,       131,
   65.0985,       140,
   65.1187,       158,
   65.1389,       130,
   65.1591,       141,
   65.1793,       175,
   65.1996,       134,
   65.2198,       139,
     65.24,       143,
   65.2602,       178,
   65.2804,       144,
   65.3007,       154,
   65.3209,       132,
   65.3411,       166,
   65.3613,       145,
   65.3815,       149,
   65.4017,       127,
    65.422,       128,
   65.4422,       142,
   65.4624,       162,
   65.4826,       144,
   65.5028,       136,
   65.5231,       136,
   65.5433,       123,
   65.5635,       132,
   65.5837,       124,
   65.6039,       151,
   65.6242,       155,
   65.6444,       149,
   65.6646,       136,
   65.6848,       137,
    65.705,       114,
   65.7252,       147,
   65.7455,       151,
   65.7657,       135,
   65.7859,       135,
   65.8061,       131,
   65.8263,       132,
   65.8466,       128,
   65.8668,       131,
    65.887,       119,
   65.9072,       135,
   65.9274,       144,
   65.9477,       143,
   65.9679,       134,
   65.9881,       136,
   66.0083,       145,
   66.0285,       154,
   66.0487,       155,
    66.069,       155,
   66.0892,       155,
   66.1094,       139,
   66.1296,       145,
   66.1498,       160,
   66.1701,       190,
   66.1903,       174,
   66.2105,       194,
   66.2307,       234,
   66.2509,       237,
   66.2712,       223,
   66.2914,       217,
   66.3116,       225,
   66.3318,       207,
    66.352,       196,
   66.3722,       189,
   66.3925,       228,
   66.4127,       201,
   66.4329,       186,
   66.4531,       197,
   66.4733,       202,
   66.4936,       192,
   66.5138,       218,
    66.534,       208,
   66.5542,       215,
   66.5744,       244,
   66.5947,       195,
   66.6149,       214,
   66.6351,       192,
   66.6553,       219,
   66.6755,       221,
   66.6957,       203,
    66.716,       223,
   66.7362,       233,
   66.7564,       209,
   66.7766,       199,
   66.7968,       201,
   66.8171,       212,
   66.8373,       196,
   66.8575,       200,
   66.8777,       182,
   66.8979,       194,
   66.9182,       177,
   66.9384,       175,
   66.9586,       202,
   66.9788,       198,
    66.999,       199,
   67.0192,       247,
   67.0395,       239,
   67.0597,       201,
   67.0799,       220,
   67.1001,       235,
   67.1203,       213,
   67.1406,       209,
   67.1608,       193,
    67.181,       218,
   67.2012,       181,
   67.2214,       203,
   67.2417,       207,
   67.2619,       171,
   67.2821,       185,
   67.3023,       187,
   67.3225,       169,
   67.3427,       163,
    67.363,       168,
   67.3832,       151,
   67.4034,       157,
   67.4236,       148,
   67.4438,       156,
   67.4641,       156,
   67.4843,       165,
   67.5045,       175,
   67.5247,       154,
   67.5449,       164,
   67.5652,       139,
   67.5854,       163,
   67.6056,       161,
   67.6258,       167,
    67.646,       168,
   67.6663,       176,
   67.6865,       152,
   67.7067,       174,
   67.7269,       146,
   67.7471,       174,
   67.7673,       152,
   67.7876,       146,
   67.8078,       184,
    67.828,       203,
   67.8482,       166,
   67.8684,       176,
   67.8887,       200,
   67.9089,       201,
   67.9291,       176,
   67.9493,       186,
   67.9695,       179,
   67.9898,       203,
     68.01,       195,
   68.0302,       164,
   68.0504,       186,
   68.0706,       189,
   68.0908,       191,
   68.1111,       214,
   68.1313,       211,
   68.1515,       170,
   68.1717,       183,
   68.1919,       166,
   68.2122,       182,
   68.2324,       169,
   68.2526,       163,
   68.2728,       168,
    68.293,       173,
   68.3133,       152,
   68.3335,       181,
   68.3537,       165,
   68.3739,       148,
   68.3941,       194,
   68.4143,       180,
   68.4346,       167,
   68.4548,       166,
    68.475,       198,
   68.4952,       162,
   68.5154,       184,
   68.5357,       173,
   68.5559,       196,
   68.5761,       177,
   68.5963,       176,
   68.6165,       205,
   68.6368,       175,
    68.657,       195,
   68.6772,       209,
   68.6974,       200,
   68.7176,       202,
   68.7378,       195,
   68.7581,       211,
   68.7783,       190,
   68.7985,       200,
   68.8187,       192,
   68.8389,       235,
   68.8592,       190,
   68.8794,       207,
   68.8996,       196,
   68.9198,       197,
     68.94,       201,
   68.9603,       180,
   68.9805,       201,
   69.0007,       183,
   69.0209,       216,
   69.0411,       218,
   69.0613,       186,
   69.0816,       185,
   69.1018,       183,
    69.122,       172,
   69.1422,       208,
   69.1624,       193,
   69.1827,       187,
   69.2029,       198,
   69.2231,       173,
   69.2433,       182,
   69.2635,       181,
   69.2838,       170,
    69.304,       163,
   69.3242,       167,
   69.3444,       151,
   69.3646,       183,
   69.3848,       182,
   69.4051,       174,
   69.4253,       162,
   69.4455,       164,
   69.4657,       159,
   69.4859,       171,
   69.5062,       168,
   69.5264,       170,
   69.5466,       175,
   69.5668,       166,
    69.587,       173,
   69.6073,       166,
   69.6275,       175,
   69.6477,       163,
   69.6679,       170,
   69.6881,       167,
   69.7083,       186,
   69.7286,       164,
   69.7488,       176,
    69.769,       156,
   69.7892,       168,
   69.8094,       156,
   69.8297,       171,
   69.8499,       159,
   69.8701,       206,
   69.8903,       198,
   69.9105,       185,
   69.9308,       199,
    69.951,       221,
   69.9712,       264,
   69.9914,       280,
   70.0116,       290,
