;RAW4.00
[RawHeader]
Date=09/12/2019
EstimatedTotalTime=1611.39
FurtherDQLReading=0
HardwareIndicator=65519
MeasuredTotalTime=1611.39
MeasurementFlag=1
NumberOfMeasuredRanges=1
NumberOfRanges=1
Time=13:28:19

[VarInfo]
Type=USER
Flags=0
Value=Bruker Service

[VarInfo]
Type=SAMPLEID
Flags=0
Value=Commander Sample ID

[VarInfo]
Type=COMMENT
Flags=0
Value=

[VarInfo]
Type=UTF
Flags=0
Value=

[VarInfo]
Type=CREATOR
Flags=0
Value=BrmlToV4Converter

[VarInfo]
Type=CREATOR_VERSION
Flags=0
Value=7.3.0.0

[HardwareConfiguration]
AbsorptionFactor=9999
ActivateAbsorber=0
Alpha1=1.78897
Alpha2=1.79285
AlphaAverage=1.79026
AlphaRatio=0.5
Analyzer=0
Anode=Co
AntiScatteringSlit=9999
BeamOpticsFlags=0
Beta=1.62079
BetaRelativeIntensity=0
DeactivateAbsorber=0
DetectorSlit=9999
DivergenceSlit=1
GoniometerControl=0
GoniometerDiameter=282
GoniometerModel=256
GoniometerStage=7
Monochromator=0
NearSampleSlit=9999
PrimarySollerSlit=9999
SampleChanger=0
SecondSollerSlit=9999
SynchronousAxis=0
ThinFilmAttachment=9999
WaveUnit=A

[RangeHeader]
ActuallyUsedLambda=1.79026
AdditionalDetectorMask=257
DataRecordLength=4
DelayTime=0
DisplayPlaneNumber=0
EstimatedScanTime=1611
ExtraParametersMask=0
GeneratorCurrent=10
GeneratorVoltage=30
Increment=0.0202188
Increment3=0
NumberOfCompletedData=2969
NumberOfCounts=1
NumberOfDetectors=0
NumberOfDrives=2
NumberOfEncoderDrives=0
NumberOfMeasuredData=2969
NumberOfVaryingParameters=0
RangeStartTime=0
RotationSpeed=1
ScanMode=1
ScanType=Locked Coupled
SimulatedMeasConditions=0
SlitChangerIn=0
SmootingWidth=0
Start=10.0023
Steps=2969
SynchronousRotation=0
Time=82.5

[VarInfo]
Type=PSD_DISCRIM
Flags=0
Value=0.11;0.25

[PSD]
ActualTwoTheta=9999
FirstUsedChannel=0
FixedPSD=0
PSDOpening=5.00414
PSDType=5

[Drive]
DriveFlags=1
DriveName=2Theta
DriveNumber=2
DriveOffset=0
OffsetIndex=0
OscillationAmplitude=0
OscillationSpeed=0
StartPosition=10.0023

[Drive]
DriveFlags=1
DriveName=Theta
DriveNumber=1
DriveOffset=0
OffsetIndex=0
OscillationAmplitude=0
OscillationSpeed=0
StartPosition=5.00117

[Data]
     Angle,       PSD,
   10.0023,       650,
   10.0226,       604,
   10.0428,       628,
    10.063,       632,
   10.0832,       654,
   10.1034,       625,
   10.1237,       597,
   10.1439,       614,
   10.1641,       581,
   10.1843,       641,
   10.2045,       646,
   10.2247,       633,
    10.245,       673,
   10.2652,       600,
   10.2854,       628,
   10.3056,       616,
   10.3258,       623,
   10.3461,       662,
   10.3663,       638,
   10.3865,       606,
   10.4067,       617,
   10.4269,       640,
   10.4472,       626,
   10.4674,       605,
   10.4876,       572,
   10.5078,       589,
    10.528,       630,
   10.5482,       598,
   10.5685,       614,
   10.5887,       628,
   10.6089,       618,
   10.6291,       650,
   10.6493,       558,
   10.6696,       581,
   10.6898,       675,
     10.71,       589,
   10.7302,       626,
   10.7504,       600,
   10.7707,       564,
   10.7909,       584,
   10.8111,       571,
   10.8313,       622,
   10.8515,       557,
   10.8717,       591,
    10.892,       581,
   10.9122,       588,
   10.9324,       591,
   10.9526,       568,
   10.9728,       596,
   10.9931,       588,
   11.0133,       609,
   11.0335,       613,
   11.0537,       596,
   11.0739,       556,
   11.0942,       599,
   11.1144,       610,
   11.1346,       576,
   11.1548,       594,
    11.175,       593,
   11.1952,       573,
   11.2155,       567,
   11.2357,       551,
   11.2559,       556,
   11.2761,       604,
   11.2963,       585,
   11.3166,       585,
   11.3368,       598,
    11.357,       619,
   11.3772,       562,
   11.3974,       557,
   11.4177,       576,
   11.4379,       571,
   11.4581,       597,
   11.4783,       603,
   11.4985,       625,
   11.5187,       564,
    11.539,       601,
   11.5592,       569,
   11.5794,       553,
   11.5996,       553,
   11.6198,       577,
   11.6401,       584,
   11.6603,       568,
   11.6805,       577,
   11.7007,       604,
   11.7209,       591,
   11.7412,       596,
   11.7614,       574,
   11.7816,       541,
   11.8018,       580,
    11.822,       569,
   11.8422,       607,
   11.8625,       625,
   11.8827,       571,
   11.9029,       583,
   11.9231,       583,
   11.9433,       536,
   11.9636,       575,
   11.9838,       572,
    12.004,       573,
   12.0242,       561,
   12.0444,       567,
   12.0647,       608,
   12.0849,       563,
   12.1051,       546,
   12.1253,       546,
   12.1455,       582,
   12.1657,       567,
    12.186,       553,
   12.2062,       551,
   12.2264,       553,
   12.2466,       524,
   12.2668,       584,
   12.2871,       561,
   12.3073,       577,
   12.3275,       590,
   12.3477,       549,
   12.3679,       521,
   12.3882,       510,
   12.4084,       554,
   12.4286,       582,
   12.4488,       546,
    12.469,       586,
   12.4892,       551,
   12.5095,       593,
   12.5297,       564,
   12.5499,       568,
   12.5701,       520,
   12.5903,       519,
   12.6106,       542,
   12.6308,       557,
    12.651,       563,
   12.6712,       563,
   12.6914,       552,
   12.7117,       551,
   12.7319,       537,
   12.7521,       554,
   12.7723,       555,
   12.7925,       550,
   12.8127,       572,
    12.833,       559,
   12.8532,       531,
   12.8734,       532,
   12.8936,       555,
   12.9138,       574,
   12.9341,       519,
   12.9543,       553,
   12.9745,       538,
   12.9947,       543,
   13.0149,       519,
   13.0352,       504,
   13.0554,       485,
   13.0756,       516,
   13.0958,       544,
    13.116,       522,
   13.1362,       520,
   13.1565,       549,
   13.1767,       602,
   13.1969,       493,
   13.2171,       541,
   13.2373,       521,
   13.2576,       537,
   13.2778,       490,
    13.298,       546,
   13.3182,       577,
   13.3384,       567,
   13.3587,       546,
   13.3789,       565,
   13.3991,       548,
   13.4193,       565,
   13.4395,       537,
   13.4597,       561,
     13.48,       548,
   13.5002,       538,
   13.5204,       538,
   13.5406,       561,
   13.5608,       592,
   13.5811,       530,
   13.6013,       605,
   13.6215,       597,
   13.6417,       601,
   13.6619,       639,
   13.6822,       602,
   13.7024,       628,
   13.7226,       625,
   13.7428,       581,
    13.763,       588,
   13.7832,       565,
   13.8035,       620,
   13.8237,       551,
   13.8439,       568,
   13.8641,       553,
   13.8843,       536,
   13.9046,       554,
   13.9248,       521,
    13.945,       544,
   13.9652,       527,
   13.9854,       565,
   14.0057,       506,
   14.0259,       523,
   14.0461,       505,
   14.0663,       496,
   14.0865,       539,
   14.1068,       550,
    14.127,       522,
   14.1472,       525,
   14.1674,       516,
   14.1876,       527,
   14.2078,       564,
   14.2281,       502,
   14.2483,       536,
   14.2685,       497,
   14.2887,       525,
   14.3089,       517,
   14.3292,       537,
   14.3494,       522,
   14.3696,       540,
   14.3898,       506,
     14.41,       550,
   14.4303,       517,
   14.4505,       494,
   14.4707,       494,
   14.4909,       526,
   14.5111,       576,
   14.5313,       539,
   14.5516,       524,
   14.5718,       515,
    14.592,       534,
   14.6122,       523,
   14.6324,       505,
   14.6527,       543,
   14.6729,       500,
   14.6931,       523,
   14.7133,       499,
   14.7335,       518,
   14.7538,       555,
    14.774,       493,
   14.7942,       461,
   14.8144,       517,
   14.8346,       483,
   14.8548,       522,
   14.8751,       508,
   14.8953,       490,
   14.9155,       489,
   14.9357,       527,
   14.9559,       524,
   14.9762,       539,
   14.9964,       510,
   15.0166,       507,
   15.0368,       491,
    15.057,       486,
   15.0773,       490,
   15.0975,       485,
   15.1177,       510,
   15.1379,       479,
   15.1581,       457,
   15.1783,       469,
   15.1986,       477,
   15.2188,       508,
    15.239,       542,
   15.2592,       479,
   15.2794,       524,
   15.2997,       533,
   15.3199,       478,
   15.3401,       430,
   15.3603,       463,
   15.3805,       487,
   15.4008,       489,
    15.421,       522,
   15.4412,       477,
   15.4614,       511,
   15.4816,       528,
   15.5018,       479,
   15.5221,       492,
   15.5423,       504,
   15.5625,       501,
   15.5827,       484,
   15.6029,       505,
   15.6232,       462,
   15.6434,       443,
   15.6636,       484,
   15.6838,       506,
    15.704,       477,
   15.7243,       474,
   15.7445,       474,
   15.7647,       497,
   15.7849,       506,
   15.8051,       477,
   15.8253,       490,
   15.8456,       526,
   15.8658,       500,
    15.886,       463,
   15.9062,       480,
   15.9264,       462,
   15.9467,       470,
   15.9669,       482,
   15.9871,       482,
   16.0073,       494,
   16.0275,       465,
   16.0478,       467,
    16.068,       508,
   16.0882,       462,
   16.1084,       490,
   16.1286,       486,
   16.1488,       469,
   16.1691,       474,
   16.1893,       474,
   16.2095,       532,
   16.2297,       487,
   16.2499,       442,
   16.2702,       472,
   16.2904,       483,
   16.3106,       490,
   16.3308,       546,
    16.351,       486,
   16.3713,       436,
   16.3915,       481,
   16.4117,       481,
   16.4319,       472,
   16.4521,       476,
   16.4723,       470,
   16.4926,       448,
   16.5128,       438,
    16.533,       472,
   16.5532,       458,
   16.5734,       490,
   16.5937,       471,
   16.6139,       501,
   16.6341,       494,
   16.6543,       524,
   16.6745,       483,
   16.6948,       483,
    16.715,       494,
   16.7352,       465,
   16.7554,       525,
   16.7756,       524,
   16.7958,       592,
   16.8161,       561,
   16.8363,       551,
   16.8565,       557,
   16.8767,       505,
   16.8969,       518,
   16.9172,       470,
   16.9374,       478,
   16.9576,       434,
   16.9778,       439,
    16.998,       495,
   17.0183,       455,
   17.0385,       440,
   17.0587,       443,
   17.0789,       431,
   17.0991,       477,
   17.1193,       466,
   17.1396,       486,
   17.1598,       481,
     17.18,       504,
   17.2002,       515,
   17.2204,       468,
   17.2407,       517,
   17.2609,       449,
   17.2811,       508,
   17.3013,       471,
   17.3215,       482,
   17.3418,       453,
    17.362,       466,
   17.3822,       506,
   17.4024,       476,
   17.4226,       464,
   17.4428,       486,
   17.4631,       474,
   17.4833,       424,
   17.5035,       455,
   17.5237,       431,
   17.5439,       463,
   17.5642,       447,
   17.5844,       483,
   17.6046,       462,
   17.6248,       442,
    17.645,       400,
   17.6653,       421,
   17.6855,       453,
   17.7057,       466,
   17.7259,       444,
   17.7461,       442,
   17.7663,       483,
   17.7866,       467,
   17.8068,       485,
    17.827,       440,
   17.8472,       435,
   17.8674,       498,
   17.8877,       459,
   17.9079,       448,
   17.9281,       408,
   17.9483,       398,
   17.9685,       459,
   17.9888,       457,
    18.009,       475,
   18.0292,       396,
   18.0494,       410,
   18.0696,       420,
   18.0898,       408,
   18.1101,       431,
   18.1303,       476,
   18.1505,       440,
   18.1707,       411,
   18.1909,       402,
   18.2112,       474,
   18.2314,       439,
   18.2516,       460,
   18.2718,       403,
    18.292,       443,
   18.3123,       408,
   18.3325,       439,
   18.3527,       432,
   18.3729,       428,
   18.3931,       447,
   18.4133,       466,
   18.4336,       457,
   18.4538,       367,
    18.474,       443,
   18.4942,       405,
   18.5144,       435,
   18.5347,       444,
   18.5549,       420,
   18.5751,       426,
   18.5953,       409,
   18.6155,       444,
   18.6358,       445,
    18.656,       434,
   18.6762,       390,
   18.6964,       430,
   18.7166,       416,
   18.7368,       408,
   18.7571,       447,
   18.7773,       450,
   18.7975,       442,
   18.8177,       420,
   18.8379,       442,
   18.8582,       430,
   18.8784,       428,
   18.8986,       416,
   18.9188,       432,
    18.939,       429,
   18.9593,       423,
   18.9795,       464,
   18.9997,       424,
   19.0199,       446,
   19.0401,       403,
   19.0603,       431,
   19.0806,       411,
   19.1008,       421,
    19.121,       440,
   19.1412,       422,
   19.1614,       463,
   19.1817,       418,
   19.2019,       370,
   19.2221,       436,
   19.2423,       404,
   19.2625,       405,
   19.2828,       443,
    19.303,       419,
   19.3232,       425,
   19.3434,       425,
   19.3636,       460,
   19.3838,       413,
   19.4041,       410,
   19.4243,       389,
   19.4445,       409,
   19.4647,       411,
   19.4849,       431,
   19.5052,       411,
   19.5254,       413,
   19.5456,       437,
   19.5658,       456,
    19.586,       445,
   19.6063,       448,
   19.6265,       385,
   19.6467,       435,
   19.6669,       422,
   19.6871,       423,
   19.7073,       420,
   19.7276,       433,
   19.7478,       423,
    19.768,       413,
   19.7882,       398,
   19.8084,       416,
   19.8287,       411,
   19.8489,       392,
   19.8691,       424,
   19.8893,       479,
   19.9095,       461,
   19.9298,       391,
     19.95,       465,
   19.9702,       417,
   19.9904,       430,
   20.0106,       408,
   20.0308,       438,
   20.0511,       417,
   20.0713,       408,
   20.0915,       434,
   20.1117,       447,
   20.1319,       458,
   20.1522,       410,
   20.1724,       418,
   20.1926,       397,
   20.2128,       431,
    20.233,       369,
   20.2533,       384,
   20.2735,       370,
   20.2937,       414,
   20.3139,       409,
   20.3341,       443,
   20.3543,       455,
   20.3746,       446,
   20.3948,       400,
    20.415,       401,
   20.4352,       432,
   20.4554,       391,
   20.4757,       447,
   20.4959,       401,
   20.5161,       426,
   20.5363,       361,
   20.5565,       432,
   20.5768,       414,
    20.597,       436,
   20.6172,       417,
   20.6374,       397,
   20.6576,       449,
   20.6778,       398,
   20.6981,       419,
   20.7183,       431,
   20.7385,       404,
   20.7587,       402,
   20.7789,       421,
   20.7992,       408,
   20.8194,       431,
   20.8396,       361,
   20.8598,       374,
     20.88,       396,
   20.9003,       411,
   20.9205,       375,
   20.9407,       426,
   20.9609,       386,
   20.9811,       420,
   21.0013,       429,
   21.0216,       429,
   21.0418,       384,
    21.062,       385,
   21.0822,       421,
   21.1024,       400,
   21.1227,       390,
   21.1429,       396,
   21.1631,       391,
   21.1833,       358,
   21.2035,       375,
   21.2238,       386,
    21.244,       413,
   21.2642,       365,
   21.2844,       407,
   21.3046,       399,
   21.3248,       421,
   21.3451,       393,
   21.3653,       426,
   21.3855,       370,
   21.4057,       389,
   21.4259,       418,
   21.4462,       378,
   21.4664,       426,
   21.4866,       419,
   21.5068,       404,
    21.527,       408,
   21.5473,       370,
   21.5675,       387,
   21.5877,       393,
   21.6079,       414,
   21.6281,       390,
   21.6483,       415,
   21.6686,       406,
   21.6888,       413,
    21.709,       397,
   21.7292,       404,
   21.7494,       405,
   21.7697,       369,
   21.7899,       423,
   21.8101,       428,
   21.8303,       379,
   21.8505,       416,
   21.8708,       414,
    21.891,       427,
   21.9112,       406,
   21.9314,       432,
   21.9516,       393,
   21.9718,       398,
   21.9921,       409,
   22.0123,       475,
   22.0325,       393,
   22.0527,       427,
   22.0729,       427,
   22.0932,       429,
   22.1134,       475,
   22.1336,       461,
   22.1538,       406,
    22.174,       429,
   22.1943,       392,
   22.2145,       396,
   22.2347,       400,
   22.2549,       395,
   22.2751,       432,
   22.2953,       444,
   22.3156,       416,
   22.3358,       429,
    22.356,       405,
   22.3762,       447,
   22.3964,       447,
   22.4167,       421,
   22.4369,       428,
   22.4571,       412,
   22.4773,       399,
   22.4975,       378,
   22.5178,       425,
    22.538,       403,
   22.5582,       430,
   22.5784,       449,
   22.5986,       397,
   22.6188,       425,
   22.6391,       407,
   22.6593,       411,
   22.6795,       382,
   22.6997,       410,
   22.7199,       425,
   22.7402,       414,
   22.7604,       387,
   22.7806,       446,
   22.8008,       446,
    22.821,       381,
   22.8413,       385,
   22.8615,       431,
   22.8817,       420,
   22.9019,       421,
   22.9221,       396,
   22.9423,       391,
   22.9626,       413,
   22.9828,       406,
    23.003,       447,
   23.0232,       422,
   23.0434,       400,
   23.0637,       427,
   23.0839,       475,
   23.1041,       414,
   23.1243,       462,
   23.1445,       443,
   23.1648,       411,
    23.185,       386,
   23.2052,       454,
   23.2254,       408,
   23.2456,       429,
   23.2658,       435,
   23.2861,       406,
   23.3063,       408,
   23.3265,       387,
   23.3467,       439,
   23.3669,       420,
   23.3872,       452,
   23.4074,       432,
   23.4276,       401,
   23.4478,       373,
    23.468,       430,
   23.4883,       424,
   23.5085,       438,
   23.5287,       445,
   23.5489,       417,
   23.5691,       444,
   23.5893,       452,
   23.6096,       429,
   23.6298,       441,
     23.65,       409,
   23.6702,       374,
   23.6904,       405,
   23.7107,       406,
   23.7309,       428,
   23.7511,       421,
   23.7713,       394,
   23.7915,       425,
   23.8118,       395,
    23.832,       417,
   23.8522,       390,
   23.8724,       421,
   23.8926,       423,
   23.9128,       353,
   23.9331,       362,
   23.9533,       405,
   23.9735,       414,
   23.9937,       396,
   24.0139,       426,
   24.0342,       429,
   24.0544,       428,
   24.0746,       418,
   24.0948,       399,
    24.115,       446,
   24.1353,       448,
   24.1555,       394,
   24.1757,       426,
   24.1959,       448,
   24.2161,       449,
   24.2363,       463,
   24.2566,       505,
   24.2768,       520,
    24.297,       505,
   24.3172,       486,
   24.3374,       500,
   24.3577,       484,
   24.3779,       470,
   24.3981,       437,
   24.4183,       457,
   24.4385,       423,
   24.4588,       399,
    24.479,       442,
   24.4992,       435,
   24.5194,       426,
   24.5396,       434,
   24.5599,       439,
   24.5801,       384,
   24.6003,       399,
   24.6205,       422,
   24.6407,       396,
   24.6609,       486,
   24.6812,       408,
   24.7014,       472,
   24.7216,       432,
   24.7418,       390,
    24.762,       424,
   24.7823,       423,
   24.8025,       426,
   24.8227,       411,
   24.8429,       415,
   24.8631,       412,
   24.8834,       446,
   24.9036,       420,
   24.9238,       395,
    24.944,       403,
   24.9642,       408,
   24.9844,       428,
   25.0047,       422,
   25.0249,       376,
   25.0451,       411,
   25.0653,       447,
   25.0855,       400,
   25.1058,       419,
    25.126,       437,
   25.1462,       381,
   25.1664,       381,
   25.1866,       385,
   25.2069,       398,
   25.2271,       407,
   25.2473,       406,
   25.2675,       381,
   25.2877,       418,
   25.3079,       421,
   25.3282,       387,
   25.3484,       395,
   25.3686,       435,
   25.3888,       378,
    25.409,       423,
   25.4293,       377,
   25.4495,       364,
   25.4697,       402,
   25.4899,       366,
   25.5101,       385,
   25.5304,       381,
   25.5506,       411,
   25.5708,       406,
    25.591,       435,
   25.6112,       400,
   25.6314,       399,
   25.6517,       381,
   25.6719,       399,
   25.6921,       391,
   25.7123,       383,
   25.7325,       391,
   25.7528,       408,
    25.773,       402,
   25.7932,       385,
   25.8134,       363,
   25.8336,       396,
   25.8539,       374,
   25.8741,       394,
   25.8943,       403,
   25.9145,       394,
   25.9347,       412,
   25.9549,       390,
   25.9752,       365,
   25.9954,       379,
   26.0156,       381,
   26.0358,       371,
    26.056,       370,
   26.0763,       416,
   26.0965,       385,
   26.1167,       376,
   26.1369,       406,
   26.1571,       391,
   26.1774,       370,
   26.1976,       370,
   26.2178,       385,
    26.238,       359,
   26.2582,       387,
   26.2784,       404,
   26.2987,       395,
   26.3189,       384,
   26.3391,       349,
   26.3593,       374,
   26.3795,       377,
   26.3998,       385,
     26.42,       427,
   26.4402,       358,
   26.4604,       372,
   26.4806,       376,
   26.5009,       372,
   26.5211,       377,
   26.5413,       385,
   26.5615,       394,
   26.5817,       368,
   26.6019,       379,
   26.6222,       412,
   26.6424,       360,
   26.6626,       392,
   26.6828,       368,
    26.703,       390,
   26.7233,       370,
   26.7435,       386,
   26.7637,       359,
   26.7839,       338,
   26.8041,       379,
   26.8244,       365,
   26.8446,       379,
   26.8648,       414,
    26.885,       431,
   26.9052,       396,
   26.9254,       443,
   26.9457,       424,
   26.9659,       405,
   26.9861,       405,
   27.0063,       443,
   27.0265,       451,
   27.0468,       433,
    27.067,       413,
   27.0872,       462,
   27.1074,       431,
   27.1276,       482,
   27.1479,       448,
   27.1681,       475,
   27.1883,       510,
   27.2085,       578,
   27.2287,       587,
   27.2489,       581,
   27.2692,       742,
   27.2894,       776,
   27.3096,       849,
   27.3298,       875,
     27.35,       963,
   27.3703,       890,
   27.3905,       906,
   27.4107,       852,
   27.4309,       827,
   27.4511,       752,
   27.4714,       777,
   27.4916,       717,
   27.5118,       682,
    27.532,       653,
   27.5522,       620,
   27.5724,       587,
   27.5927,       527,
   27.6129,       528,
   27.6331,       520,
   27.6533,       510,
   27.6735,       461,
   27.6938,       476,
    27.714,       510,
   27.7342,       476,
   27.7544,       437,
   27.7746,       442,
   27.7949,       455,
   27.8151,       434,
   27.8353,       430,
   27.8555,       405,
   27.8757,       429,
   27.8959,       428,
   27.9162,       450,
   27.9364,       428,
   27.9566,       423,
   27.9768,       362,
    27.997,       416,
   28.0173,       385,
   28.0375,       406,
   28.0577,       390,
   28.0779,       363,
   28.0981,       362,
   28.1184,       383,
   28.1386,       369,
   28.1588,       385,
    28.179,       373,
   28.1992,       397,
   28.2194,       389,
   28.2397,       366,
   28.2599,       379,
   28.2801,       355,
   28.3003,       357,
   28.3205,       371,
   28.3408,       326,
    28.361,       324,
   28.3812,       354,
   28.4014,       399,
   28.4216,       354,
   28.4419,       318,
   28.4621,       408,
   28.4823,       370,
   28.5025,       362,
   28.5227,       331,
   28.5429,       342,
   28.5632,       366,
   28.5834,       374,
   28.6036,       365,
   28.6238,       373,
    28.644,       384,
   28.6643,       383,
   28.6845,       385,
   28.7047,       360,
   28.7249,       376,
   28.7451,       375,
   28.7654,       368,
   28.7856,       408,
   28.8058,       369,
    28.826,       363,
   28.8462,       371,
   28.8664,       374,
   28.8867,       371,
   28.9069,       362,
   28.9271,       354,
   28.9473,       311,
   28.9675,       344,
   28.9878,       351,
    29.008,       374,
   29.0282,       337,
   29.0484,       358,
   29.0686,       400,
   29.0889,       373,
   29.1091,       397,
   29.1293,       338,
   29.1495,       338,
   29.1697,       330,
   29.1899,       358,
   29.2102,       354,
   29.2304,       353,
   29.2506,       342,
   29.2708,       347,
    29.291,       318,
   29.3113,       349,
   29.3315,       370,
   29.3517,       357,
   29.3719,       332,
   29.3921,       358,
   29.4124,       367,
   29.4326,       323,
   29.4528,       329,
    29.473,       347,
   29.4932,       328,
   29.5134,       321,
   29.5337,       358,
   29.5539,       333,
   29.5741,       368,
   29.5943,       342,
   29.6145,       362,
   29.6348,       387,
    29.655,       364,
   29.6752,       353,
   29.6954,       341,
   29.7156,       371,
   29.7359,       349,
   29.7561,       342,
   29.7763,       358,
   29.7965,       374,
   29.8167,       381,
   29.8369,       335,
   29.8572,       365,
   29.8774,       355,
   29.8976,       391,
   29.9178,       353,
    29.938,       393,
   29.9583,       381,
   29.9785,       377,
   29.9987,       388,
   30.0189,       375,
   30.0391,       341,
   30.0594,       373,
   30.0796,       370,
   30.0998,       370,
     30.12,       421,
   30.1402,       396,
   30.1604,       375,
   30.1807,       402,
   30.2009,       359,
   30.2211,       382,
   30.2413,       429,
   30.2615,       393,
   30.2818,       374,
    30.302,       394,
   30.3222,       411,
   30.3424,       453,
   30.3626,       410,
   30.3829,       474,
   30.4031,       448,
   30.4233,       482,
   30.4435,       467,
   30.4637,       528,
   30.4839,       525,
   30.5042,       590,
   30.5244,       629,
   30.5446,       652,
   30.5648,       807,
    30.585,       902,
   30.6053,      1059,
   30.6255,      1259,
   30.6457,      1498,
   30.6659,      1573,
   30.6861,      1677,
   30.7064,      1652,
   30.7266,      1528,
   30.7468,      1401,
    30.767,      1203,
   30.7872,      1027,
   30.8074,       913,
   30.8277,       786,
   30.8479,       691,
   30.8681,       634,
   30.8883,       581,
   30.9085,       557,
   30.9288,       585,
    30.949,       575,
   30.9692,       468,
   30.9894,       528,
   31.0096,       470,
   31.0299,       447,
   31.0501,       446,
   31.0703,       449,
   31.0905,       419,
   31.1107,       426,
   31.1309,       438,
   31.1512,       418,
   31.1714,       438,
   31.1916,       418,
   31.2118,       497,
    31.232,       452,
   31.2523,       451,
   31.2725,       413,
   31.2927,       450,
   31.3129,       400,
   31.3331,       382,
   31.3534,       414,
   31.3736,       435,
   31.3938,       438,
    31.414,       477,
   31.4342,       454,
   31.4544,       482,
   31.4747,       520,
   31.4949,       529,
   31.5151,       489,
   31.5353,       576,
   31.5555,       535,
   31.5758,       550,
    31.596,       555,
   31.6162,       574,
   31.6364,       579,
   31.6566,       563,
   31.6769,       607,
   31.6971,       683,
   31.7173,       690,
   31.7375,       749,
   31.7577,       739,
   31.7779,       809,
   31.7982,       821,
   31.8184,       939,
   31.8386,       886,
   31.8588,       987,
    31.879,       934,
   31.8993,       931,
   31.9195,       873,
   31.9397,       798,
   31.9599,       797,
   31.9801,       766,
   32.0004,       756,
   32.0206,       691,
   32.0408,       777,
    32.061,       669,
   32.0812,       656,
   32.1014,       637,
   32.1217,       630,
   32.1419,       588,
   32.1621,       534,
   32.1823,       462,
   32.2025,       426,
   32.2228,       459,
    32.243,       408,
   32.2632,       424,
   32.2834,       383,
   32.3036,       395,
   32.3239,       402,
   32.3441,       373,
   32.3643,       379,
   32.3845,       373,
   32.4047,       377,
   32.4249,       365,
   32.4452,       356,
   32.4654,       335,
   32.4856,       378,
   32.5058,       363,
    32.526,       384,
   32.5463,       347,
   32.5665,       364,
   32.5867,       350,
   32.6069,       369,
   32.6271,       372,
   32.6474,       340,
   32.6676,       317,
   32.6878,       348,
    32.708,       355,
   32.7282,       349,
   32.7484,       346,
   32.7687,       322,
   32.7889,       358,
   32.8091,       324,
   32.8293,       334,
   32.8495,       369,
   32.8698,       328,
     32.89,       345,
   32.9102,       329,
   32.9304,       350,
   32.9506,       395,
   32.9709,       330,
   32.9911,       321,
   33.0113,       396,
   33.0315,       362,
   33.0517,       333,
   33.0719,       326,
   33.0922,       376,
   33.1124,       318,
   33.1326,       329,
   33.1528,       349,
    33.173,       366,
   33.1933,       310,
   33.2135,       369,
   33.2337,       344,
   33.2539,       332,
   33.2741,       334,
   33.2944,       349,
   33.3146,       364,
   33.3348,       348,
    33.355,       330,
   33.3752,       338,
   33.3954,       370,
   33.4157,       357,
   33.4359,       360,
   33.4561,       363,
   33.4763,       384,
   33.4965,       374,
   33.5168,       429,
    33.537,       446,
   33.5572,       503,
   33.5774,       518,
   33.5976,       468,
   33.6179,       440,
   33.6381,       430,
   33.6583,       393,
   33.6785,       349,
   33.6987,       384,
   33.7189,       337,
   33.7392,       370,
   33.7594,       399,
   33.7796,       350,
   33.7998,       394,
     33.82,       426,
   33.8403,       368,
   33.8605,       396,
   33.8807,       376,
   33.9009,       395,
   33.9211,       404,
   33.9414,       410,
   33.9616,       416,
   33.9818,       406,
    34.002,       397,
   34.0222,       420,
   34.0424,       451,
   34.0627,       443,
   34.0829,       483,
   34.1031,       439,
   34.1233,       492,
   34.1435,       419,
   34.1638,       460,
    34.184,       486,
   34.2042,       467,
   34.2244,       467,
   34.2446,       493,
   34.2649,       454,
   34.2851,       488,
   34.3053,       489,
   34.3255,       529,
   34.3457,       517,
   34.3659,       539,
   34.3862,       579,
   34.4064,       617,
   34.4266,       678,
   34.4468,       757,
    34.467,       827,
   34.4873,       856,
   34.5075,       898,
   34.5277,       848,
   34.5479,       911,
   34.5681,       968,
   34.5884,       970,
   34.6086,      1049,
   34.6288,      1135,
    34.649,      1236,
   34.6692,      1428,
   34.6894,      1582,
   34.7097,      1863,
   34.7299,      2235,
   34.7501,      2567,
   34.7703,      3091,
   34.7905,      3430,
   34.8108,      3974,
    34.831,      4446,
   34.8512,      4904,
   34.8714,      5222,
   34.8916,      5380,
   34.9119,      5527,
   34.9321,      5595,
   34.9523,      5535,
   34.9725,      5431,
   34.9927,      5412,
   35.0129,      5106,
   35.0332,      4936,
   35.0534,      4701,
   35.0736,      4318,
   35.0938,      3958,
    35.114,      3624,
   35.1343,      3333,
   35.1545,      3078,
   35.1747,      2732,
   35.1949,      2554,
   35.2151,      2320,
   35.2354,      2214,
   35.2556,      1898,
   35.2758,      1840,
    35.296,      1603,
   35.3162,      1467,
   35.3365,      1369,
   35.3567,      1315,
   35.3769,      1156,
   35.3971,      1135,
   35.4173,      1080,
   35.4375,      1046,
   35.4578,       987,
    35.478,       997,
   35.4982,       872,
   35.5184,       836,
   35.5386,       778,
   35.5589,       814,
   35.5791,       766,
   35.5993,       769,
   35.6195,       713,
   35.6397,       692,
     35.66,       644,
   35.6802,       697,
   35.7004,       623,
   35.7206,       682,
   35.7408,       643,
    35.761,       633,
   35.7813,       652,
   35.8015,       620,
   35.8217,       614,
   35.8419,       586,
   35.8621,       594,
   35.8824,       598,
   35.9026,       575,
   35.9228,       630,
    35.943,       539,
   35.9632,       559,
   35.9835,       540,
   36.0037,       514,
   36.0239,       511,
   36.0441,       513,
   36.0643,       523,
   36.0845,       509,
   36.1048,       467,
    36.125,       547,
   36.1452,       519,
   36.1654,       502,
   36.1856,       517,
   36.2059,       463,
   36.2261,       504,
   36.2463,       500,
   36.2665,       476,
   36.2867,       480,
    36.307,       456,
   36.3272,       532,
   36.3474,       489,
   36.3676,       516,
   36.3878,       485,
    36.408,       506,
   36.4283,       511,
   36.4485,       519,
   36.4687,       478,
   36.4889,       498,
   36.5091,       463,
   36.5294,       431,
   36.5496,       438,
   36.5698,       402,
     36.59,       408,
   36.6102,       446,
   36.6305,       439,
   36.6507,       408,
   36.6709,       453,
   36.6911,       408,
   36.7113,       417,
   36.7315,       414,
   36.7518,       485,
    36.772,       484,
   36.7922,       458,
   36.8124,       458,
   36.8326,       477,
   36.8529,       487,
   36.8731,       581,
   36.8933,       553,
   36.9135,       567,
   36.9337,       641,
    36.954,       713,
   36.9742,       892,
   36.9944,      1012,
   37.0146,      1073,
   37.0348,      1256,
    37.055,      1647,
   37.0753,      2548,
   37.0955,      4345,
   37.1157,      8557,
   37.1359,     15648,
   37.1561,     20031,
   37.1764,     13854,
   37.1966,      9246,
   37.2168,     10006,
    37.237,     10335,
   37.2572,      7120,
   37.2775,      3757,
   37.2977,      2221,
   37.3179,      1593,
   37.3381,      1283,
   37.3583,      1052,
   37.3785,       980,
   37.3988,       878,
    37.419,       829,
   37.4392,       886,
   37.4594,       813,
   37.4796,       717,
   37.4999,       743,
   37.5201,       676,
   37.5403,       575,
   37.5605,       556,
   37.5807,       543,
    37.601,       558,
   37.6212,       501,
   37.6414,       476,
   37.6616,       520,
   37.6818,       522,
    37.702,       490,
   37.7223,       520,
   37.7425,       508,
   37.7627,       453,
   37.7829,       498,
   37.8031,       422,
   37.8234,       473,
   37.8436,       422,
   37.8638,       429,
    37.884,       393,
   37.9042,       384,
   37.9245,       411,
   37.9447,       400,
   37.9649,       395,
   37.9851,       413,
   38.0053,       393,
   38.0255,       413,
   38.0458,       401,
    38.066,       354,
   38.0862,       365,
   38.1064,       366,
   38.1266,       396,
   38.1469,       392,
   38.1671,       372,
   38.1873,       428,
   38.2075,       401,
   38.2277,       384,
    38.248,       410,
   38.2682,       395,
   38.2884,       387,
   38.3086,       378,
   38.3288,       428,
    38.349,       437,
   38.3693,       457,
   38.3895,       473,
   38.4097,       421,
   38.4299,       435,
   38.4501,       453,
   38.4704,       477,
   38.4906,       429,
   38.5108,       444,
    38.531,       420,
   38.5512,       448,
   38.5715,       513,
   38.5917,       486,
   38.6119,       512,
   38.6321,       578,
   38.6523,       552,
   38.6725,       618,
   38.6928,       675,
    38.713,       833,
   38.7332,       824,
   38.7534,       930,
   38.7736,      1014,
   38.7939,      1010,
   38.8141,       947,
   38.8343,       919,
   38.8545,       857,
   38.8747,       766,
    38.895,       672,
   38.9152,       607,
   38.9354,       589,
   38.9556,       560,
   38.9758,       497,
    38.996,       465,
   39.0163,       470,
   39.0365,       456,
   39.0567,       393,
   39.0769,       382,
   39.0971,       372,
   39.1174,       350,
   39.1376,       391,
   39.1578,       388,
    39.178,       399,
   39.1982,       361,
   39.2185,       334,
   39.2387,       349,
   39.2589,       338,
   39.2791,       356,
   39.2993,       339,
   39.3195,       352,
   39.3398,       304,
     39.36,       343,
   39.3802,       337,
   39.4004,       326,
   39.4206,       315,
   39.4409,       346,
   39.4611,       344,
   39.4813,       356,
   39.5015,       332,
   39.5217,       302,
    39.542,       338,
   39.5622,       315,
   39.5824,       356,
   39.6026,       311,
   39.6228,       313,
    39.643,       335,
   39.6633,       333,
   39.6835,       322,
   39.7037,       318,
   39.7239,       324,
   39.7441,       331,
   39.7644,       287,
   39.7846,       310,
   39.8048,       326,
    39.825,       321,
   39.8452,       328,
   39.8655,       310,
   39.8857,       332,
   39.9059,       339,
   39.9261,       313,
   39.9463,       325,
   39.9665,       287,
   39.9868,       320,
    40.007,       332,
   40.0272,       332,
   40.0474,       326,
   40.0676,       289,
   40.0879,       303,
   40.1081,       319,
   40.1283,       341,
   40.1485,       294,
   40.1687,       313,
    40.189,       332,
   40.2092,       358,
   40.2294,       345,
   40.2496,       314,
   40.2698,       316,
     40.29,       284,
   40.3103,       328,
   40.3305,       328,
   40.3507,       352,
   40.3709,       315,
   40.3911,       318,
   40.4114,       309,
   40.4316,       337,
   40.4518,       337,
    40.472,       318,
   40.4922,       320,
   40.5125,       352,
   40.5327,       319,
   40.5529,       315,
   40.5731,       333,
   40.5933,       315,
   40.6135,       348,
   40.6338,       320,
    40.654,       307,
   40.6742,       325,
   40.6944,       311,
   40.7146,       336,
   40.7349,       301,
   40.7551,       312,
   40.7753,       338,
   40.7955,       317,
   40.8157,       314,
    40.836,       320,
   40.8562,       309,
   40.8764,       288,
   40.8966,       331,
   40.9168,       316,
    40.937,       336,
   40.9573,       317,
   40.9775,       265,
   40.9977,       330,
   41.0179,       333,
   41.0381,       333,
   41.0584,       304,
   41.0786,       295,
   41.0988,       279,
    41.119,       296,
   41.1392,       318,
   41.1595,       302,
   41.1797,       321,
   41.1999,       300,
   41.2201,       277,
   41.2403,       296,
   41.2605,       321,
   41.2808,       309,
    41.301,       325,
   41.3212,       314,
   41.3414,       316,
   41.3616,       327,
   41.3819,       333,
   41.4021,       294,
   41.4223,       330,
   41.4425,       303,
   41.4627,       316,
    41.483,       298,
   41.5032,       292,
   41.5234,       318,
   41.5436,       346,
   41.5638,       345,
    41.584,       306,
   41.6043,       352,
   41.6245,       335,
   41.6447,       297,
   41.6649,       307,
   41.6851,       328,
   41.7054,       334,
   41.7256,       356,
   41.7458,       331,
    41.766,       331,
   41.7862,       314,
   41.8065,       316,
   41.8267,       341,
   41.8469,       341,
   41.8671,       357,
   41.8873,       352,
   41.9075,       341,
   41.9278,       349,
    41.948,       366,
   41.9682,       347,
   41.9884,       392,
   42.0086,       348,
   42.0289,       390,
   42.0491,       397,
   42.0693,       428,
   42.0895,       420,
   42.1097,       432,
     42.13,       439,
   42.1502,       473,
   42.1704,       474,
   42.1906,       537,
   42.2108,       558,
    42.231,       630,
   42.2513,       698,
   42.2715,       705,
   42.2917,       782,
   42.3119,       714,
   42.3321,       740,
   42.3524,       744,
   42.3726,       765,
   42.3928,       749,
    42.413,       792,
   42.4332,       751,
   42.4535,       708,
   42.4737,       703,
   42.4939,       709,
   42.5141,       735,
   42.5343,       728,
   42.5545,       702,
   42.5748,       772,
    42.595,       753,
   42.6152,       816,
   42.6354,       827,
   42.6556,       925,
   42.6759,       905,
   42.6961,       971,
   42.7163,       918,
   42.7365,      1021,
   42.7567,      1055,
    42.777,      1020,
   42.7972,      1002,
   42.8174,       933,
   42.8376,       934,
   42.8578,       863,
    42.878,       866,
   42.8983,       784,
   42.9185,       774,
   42.9387,       781,
   42.9589,       670,
   42.9791,       689,
   42.9994,       622,
   43.0196,       552,
   43.0398,       550,
     43.06,       547,
   43.0802,       572,
   43.1005,       468,
   43.1207,       481,
   43.1409,       405,
   43.1611,       458,
   43.1813,       442,
   43.2015,       420,
   43.2218,       433,
    43.242,       397,
   43.2622,       363,
   43.2824,       382,
   43.3026,       380,
   43.3229,       377,
   43.3431,       410,
   43.3633,       363,
   43.3835,       378,
   43.4037,       404,
    43.424,       391,
   43.4442,       398,
   43.4644,       400,
   43.4846,       365,
   43.5048,       388,
    43.525,       395,
   43.5453,       410,
   43.5655,       369,
   43.5857,       443,
   43.6059,       461,
   43.6261,       432,
   43.6464,       498,
   43.6666,       487,
   43.6868,       459,
    43.707,       494,
   43.7272,       480,
   43.7475,       437,
   43.7677,       455,
   43.7879,       456,
   43.8081,       437,
   43.8283,       442,
   43.8485,       455,
   43.8688,       445,
    43.889,       371,
   43.9092,       377,
   43.9294,       364,
   43.9496,       352,
   43.9699,       367,
   43.9901,       357,
   44.0103,       371,
   44.0305,       311,
   44.0507,       365,
    44.071,       333,
   44.0912,       370,
   44.1114,       316,
   44.1316,       385,
   44.1518,       376,
    44.172,       380,
   44.1923,       369,
   44.2125,       370,
   44.2327,       401,
   44.2529,       462,
   44.2731,       475,
   44.2934,       472,
   44.3136,       569,
   44.3338,       660,
    44.354,       693,
   44.3742,       763,
   44.3945,       825,
   44.4147,       816,
   44.4349,       751,
   44.4551,       777,
   44.4753,       689,
   44.4955,       666,
   44.5158,       674,
    44.536,       580,
   44.5562,       525,
   44.5764,       488,
   44.5966,       449,
   44.6169,       418,
   44.6371,       408,
   44.6573,       384,
   44.6775,       411,
   44.6977,       391,
    44.718,       358,
   44.7382,       384,
   44.7584,       371,
   44.7786,       430,
   44.7988,       358,
    44.819,       428,
   44.8393,       383,
   44.8595,       404,
   44.8797,       396,
   44.8999,       461,
   44.9201,       466,
   44.9404,       495,
   44.9606,       522,
   44.9808,       522,
    45.001,       564,
   45.0212,       565,
   45.0415,       570,
   45.0617,       591,
   45.0819,       593,
   45.1021,       549,
   45.1223,       582,
   45.1425,       566,
   45.1628,       535,
    45.183,       495,
   45.2032,       524,
   45.2234,       566,
   45.2436,       549,
   45.2639,       557,
   45.2841,       516,
   45.3043,       531,
   45.3245,       531,
   45.3447,       511,
    45.365,       467,
   45.3852,       428,
   45.4054,       375,
   45.4256,       409,
   45.4458,       369,
    45.466,       340,
   45.4863,       338,
   45.5065,       336,
   45.5267,       314,
   45.5469,       317,
   45.5671,       300,
   45.5874,       338,
   45.6076,       300,
   45.6278,       320,
    45.648,       293,
   45.6682,       256,
   45.6885,       287,
   45.7087,       306,
   45.7289,       305,
   45.7491,       278,
   45.7693,       307,
   45.7895,       279,
   45.8098,       297,
     45.83,       282,
   45.8502,       316,
   45.8704,       309,
   45.8906,       236,
   45.9109,       294,
   45.9311,       282,
   45.9513,       277,
   45.9715,       273,
   45.9917,       299,
    46.012,       283,
   46.0322,       303,
   46.0524,       287,
   46.0726,       273,
   46.0928,       291,
   46.1131,       289,
   46.1333,       301,
   46.1535,       303,
   46.1737,       303,
   46.1939,       329,
   46.2141,       330,
   46.2344,       323,
   46.2546,       371,
   46.2748,       364,
    46.295,       373,
   46.3152,       365,
   46.3355,       334,
   46.3557,       348,
   46.3759,       363,
   46.3961,       361,
   46.4163,       368,
   46.4366,       408,
   46.4568,       359,
    46.477,       423,
   46.4972,       399,
   46.5174,       396,
   46.5376,       446,
   46.5579,       467,
   46.5781,       461,
   46.5983,       493,
   46.6185,       509,
   46.6387,       553,
    46.659,       590,
   46.6792,       610,
   46.6994,       691,
   46.7196,       760,
   46.7398,       795,
   46.7601,       874,
   46.7803,       933,
   46.8005,       924,
   46.8207,      1039,
   46.8409,      1074,
   46.8611,      1113,
   46.8814,      1144,
   46.9016,      1125,
   46.9218,      1132,
    46.942,      1095,
   46.9622,      1074,
   46.9825,      1102,
   47.0027,      1062,
   47.0229,       964,
   47.0431,       993,
   47.0633,       913,
   47.0836,       957,
   47.1038,       883,
    47.124,       834,
   47.1442,       787,
   47.1644,       788,
   47.1846,       776,
   47.2049,       660,
   47.2251,       640,
   47.2453,       593,
   47.2655,       597,
   47.2857,       570,
    47.306,       539,
   47.3262,       510,
   47.3464,       481,
   47.3666,       496,
   47.3868,       433,
   47.4071,       446,
   47.4273,       469,
   47.4475,       407,
   47.4677,       461,
   47.4879,       407,
   47.5081,       392,
   47.5284,       412,
   47.5486,       338,
   47.5688,       381,
    47.589,       347,
   47.6092,       376,
   47.6295,       357,
   47.6497,       372,
   47.6699,       361,
   47.6901,       391,
   47.7103,       357,
   47.7306,       365,
   47.7508,       354,
    47.771,       334,
   47.7912,       328,
   47.8114,       344,
   47.8316,       356,
   47.8519,       330,
   47.8721,       340,
   47.8923,       322,
   47.9125,       351,
   47.9327,       345,
    47.953,       366,
   47.9732,       345,
   47.9934,       337,
   48.0136,       331,
   48.0338,       329,
   48.0541,       353,
   48.0743,       348,
   48.0945,       378,
   48.1147,       356,
   48.1349,       356,
   48.1551,       372,
   48.1754,       351,
   48.1956,       359,
   48.2158,       361,
    48.236,       376,
   48.2562,       404,
   48.2765,       413,
   48.2967,       387,
   48.3169,       412,
   48.3371,       419,
   48.3573,       393,
   48.3776,       417,
   48.3978,       415,
    48.418,       418,
   48.4382,       408,
   48.4584,       342,
   48.4786,       367,
   48.4989,       325,
   48.5191,       381,
   48.5393,       332,
   48.5595,       378,
   48.5797,       334,
      48.6,       327,
   48.6202,       329,
   48.6404,       319,
   48.6606,       310,
   48.6808,       325,
   48.7011,       295,
   48.7213,       283,
   48.7415,       277,
   48.7617,       265,
   48.7819,       290,
   48.8021,       250,
   48.8224,       290,
   48.8426,       300,
   48.8628,       295,
    48.883,       288,
   48.9032,       287,
   48.9235,       249,
   48.9437,       286,
   48.9639,       268,
   48.9841,       237,
   49.0043,       259,
   49.0246,       287,
   49.0448,       248,
    49.065,       260,
   49.0852,       293,
   49.1054,       261,
   49.1256,       274,
   49.1459,       248,
   49.1661,       278,
   49.1863,       246,
   49.2065,       269,
   49.2267,       241,
    49.247,       273,
   49.2672,       240,
   49.2874,       257,
   49.3076,       284,
   49.3278,       278,
   49.3481,       261,
   49.3683,       263,
   49.3885,       259,
   49.4087,       253,
   49.4289,       266,
   49.4491,       275,
   49.4694,       256,
   49.4896,       269,
   49.5098,       250,
     49.53,       251,
   49.5502,       260,
   49.5705,       268,
   49.5907,       254,
   49.6109,       287,
   49.6311,       275,
   49.6513,       266,
   49.6716,       252,
   49.6918,       244,
    49.712,       274,
   49.7322,       257,
   49.7524,       289,
   49.7726,       252,
   49.7929,       245,
   49.8131,       275,
   49.8333,       244,
   49.8535,       246,
   49.8737,       258,
    49.894,       267,
   49.9142,       280,
   49.9344,       271,
   49.9546,       256,
   49.9748,       302,
   49.9951,       274,
   50.0153,       294,
   50.0355,       287,
   50.0557,       273,
   50.0759,       282,
   50.0961,       326,
   50.1164,       293,
   50.1366,       304,
   50.1568,       306,
    50.177,       330,
   50.1972,       301,
   50.2175,       312,
   50.2377,       337,
   50.2579,       370,
   50.2781,       391,
   50.2983,       389,
   50.3186,       402,
   50.3388,       478,
    50.359,       509,
   50.3792,       501,
   50.3994,       547,
   50.4196,       477,
   50.4399,       504,
   50.4601,       466,
   50.4803,       433,
   50.5005,       422,
   50.5207,       396,
    50.541,       385,
   50.5612,       357,
   50.5814,       335,
   50.6016,       342,
   50.6218,       341,
   50.6421,       344,
   50.6623,       319,
   50.6825,       327,
   50.7027,       328,
   50.7229,       340,
   50.7431,       358,
   50.7634,       338,
   50.7836,       355,
   50.8038,       315,
    50.824,       342,
   50.8442,       340,
   50.8645,       344,
   50.8847,       345,
   50.9049,       322,
   50.9251,       368,
   50.9453,       349,
   50.9656,       363,
   50.9858,       370,
    51.006,       369,
   51.0262,       378,
   51.0464,       400,
   51.0666,       426,
   51.0869,       395,
   51.1071,       430,
   51.1273,       463,
   51.1475,       537,
   51.1677,       545,
    51.188,       567,
   51.2082,       645,
   51.2284,       648,
   51.2486,       737,
   51.2688,       771,
   51.2891,       814,
   51.3093,       815,
   51.3295,       912,
   51.3497,       885,
   51.3699,       938,
   51.3901,       942,
   51.4104,       926,
   51.4306,       971,
   51.4508,       957,
    51.471,       896,
   51.4912,       940,
   51.5115,       921,
   51.5317,       890,
   51.5519,       828,
   51.5721,       854,
   51.5923,       828,
   51.6126,       766,
   51.6328,       797,
    51.653,       659,
   51.6732,       728,
   51.6934,       674,
   51.7136,       609,
   51.7339,       580,
   51.7541,       570,
   51.7743,       519,
   51.7945,       521,
   51.8147,       493,
    51.835,       459,
   51.8552,       456,
   51.8754,       458,
   51.8956,       413,
   51.9158,       421,
   51.9361,       395,
   51.9563,       396,
   51.9765,       416,
   51.9967,       347,
   52.0169,       362,
   52.0371,       389,
   52.0574,       371,
   52.0776,       326,
   52.0978,       319,
    52.118,       322,
   52.1382,       320,
   52.1585,       316,
   52.1787,       331,
   52.1989,       335,
   52.2191,       316,
   52.2393,       328,
   52.2596,       305,
   52.2798,       315,
      52.3,       299,
   52.3202,       315,
   52.3404,       332,
   52.3606,       308,
   52.3809,       338,
   52.4011,       327,
   52.4213,       291,
   52.4415,       330,
   52.4617,       305,
    52.482,       300,
   52.5022,       303,
   52.5224,       297,
   52.5426,       307,
   52.5628,       305,
   52.5831,       320,
   52.6033,       336,
   52.6235,       306,
   52.6437,       302,
   52.6639,       298,
   52.6841,       276,
   52.7044,       290,
   52.7246,       297,
   52.7448,       313,
    52.765,       301,
   52.7852,       279,
   52.8055,       318,
   52.8257,       293,
   52.8459,       281,
   52.8661,       288,
   52.8863,       308,
   52.9066,       304,
   52.9268,       287,
    52.947,       313,
   52.9672,       284,
   52.9874,       323,
   53.0076,       323,
   53.0279,       301,
   53.0481,       308,
   53.0683,       305,
   53.0885,       326,
   53.1087,       316,
    53.129,       318,
   53.1492,       320,
   53.1694,       374,
   53.1896,       357,
   53.2098,       360,
   53.2301,       380,
   53.2503,       451,
   53.2705,       428,
   53.2907,       473,
   53.3109,       544,
   53.3311,       624,
   53.3514,       757,
   53.3716,       943,
   53.3918,      1070,
    53.412,      1235,
   53.4322,      1374,
   53.4525,      1316,
   53.4727,      1332,
   53.4929,      1211,
   53.5131,      1166,
   53.5333,      1124,
   53.5536,      1034,
   53.5738,       996,
    53.594,       917,
   53.6142,       797,
   53.6344,       750,
   53.6546,       590,
   53.6749,       617,
   53.6951,       563,
   53.7153,       607,
   53.7355,       591,
   53.7557,       572,
    53.776,       648,
   53.7962,       711,
   53.8164,       710,
   53.8366,       883,
   53.8568,       889,
   53.8771,       991,
   53.8973,      1048,
   53.9175,      1011,
   53.9377,       935,
   53.9579,       919,
   53.9781,       836,
   53.9984,       819,
   54.0186,       838,
   54.0388,       753,
    54.059,       689,
   54.0792,       616,
   54.0995,       533,
   54.1197,       496,
   54.1399,       452,
   54.1601,       385,
   54.1803,       390,
   54.2006,       393,
   54.2208,       374,
    54.241,       344,
   54.2612,       363,
   54.2814,       344,
   54.3016,       308,
   54.3219,       336,
   54.3421,       310,
   54.3623,       316,
   54.3825,       308,
   54.4027,       295,
    54.423,       280,
   54.4432,       292,
   54.4634,       301,
   54.4836,       292,
   54.5038,       303,
   54.5241,       283,
   54.5443,       274,
   54.5645,       290,
   54.5847,       292,
   54.6049,       303,
   54.6251,       256,
   54.6454,       254,
   54.6656,       248,
   54.6858,       293,
    54.706,       273,
   54.7262,       262,
   54.7465,       281,
   54.7667,       233,
   54.7869,       290,
   54.8071,       257,
   54.8273,       254,
   54.8476,       248,
   54.8678,       254,
    54.888,       270,
   54.9082,       242,
   54.9284,       303,
   54.9486,       260,
   54.9689,       269,
   54.9891,       241,
   55.0093,       241,
   55.0295,       215,
   55.0497,       247,
     55.07,       224,
   55.0902,       247,
   55.1104,       251,
   55.1306,       260,
   55.1508,       253,
   55.1711,       268,
   55.1913,       277,
   55.2115,       257,
   55.2317,       258,
   55.2519,       243,
   55.2721,       278,
   55.2924,       275,
   55.3126,       240,
   55.3328,       284,
    55.353,       292,
   55.3732,       251,
   55.3935,       285,
   55.4137,       286,
   55.4339,       268,
   55.4541,       292,
   55.4743,       253,
   55.4946,       277,
   55.5148,       262,
    55.535,       287,
   55.5552,       250,
   55.5754,       273,
   55.5956,       283,
   55.6159,       258,
   55.6361,       300,
   55.6563,       269,
   55.6765,       289,
   55.6967,       297,
    55.717,       269,
   55.7372,       306,
   55.7574,       312,
   55.7776,       293,
   55.7978,       280,
   55.8181,       319,
   55.8383,       293,
   55.8585,       321,
   55.8787,       322,
   55.8989,       348,
   55.9191,       365,
   55.9394,       366,
   55.9596,       375,
   55.9798,       421,
        56,       411,
   56.0202,       491,
   56.0405,       425,
   56.0607,       451,
   56.0809,       465,
   56.1011,       479,
   56.1213,       490,
   56.1416,       543,
   56.1618,       531,
    56.182,       501,
   56.2022,       499,
   56.2224,       587,
   56.2426,       546,
   56.2629,       621,
   56.2831,       562,
   56.3033,       617,
   56.3235,       585,
   56.3437,       636,
    56.364,       615,
   56.3842,       608,
   56.4044,       636,
   56.4246,       732,
   56.4448,       713,
   56.4651,       695,
   56.4853,       675,
   56.5055,       705,
   56.5257,       776,
   56.5459,       810,
   56.5661,       798,
   56.5864,       842,
   56.6066,       875,
   56.6268,       892,
    56.647,       905,
   56.6672,       896,
   56.6875,       935,
   56.7077,      1007,
   56.7279,       967,
   56.7481,      1009,
   56.7683,      1090,
   56.7886,      1075,
   56.8088,      1099,
    56.829,      1082,
   56.8492,      1108,
   56.8694,      1125,
   56.8897,      1075,
   56.9099,      1068,
   56.9301,      1121,
   56.9503,      1038,
   56.9705,      1019,
   56.9907,      1033,
    57.011,      1029,
   57.0312,       990,
   57.0514,       933,
   57.0716,       864,
   57.0918,       837,
   57.1121,       815,
   57.1323,       764,
   57.1525,       765,
   57.1727,       762,
   57.1929,       698,
   57.2132,       660,
   57.2334,       644,
   57.2536,       651,
   57.2738,       629,
    57.294,       590,
   57.3142,       561,
   57.3345,       566,
   57.3547,       579,
   57.3749,       535,
   57.3951,       527,
   57.4153,       519,
   57.4356,       491,
   57.4558,       495,
    57.476,       534,
   57.4962,       532,
   57.5164,       544,
   57.5367,       489,
   57.5569,       522,
   57.5771,       516,
   57.5973,       593,
   57.6175,       549,
   57.6377,       556,
    57.658,       584,
   57.6782,       584,
   57.6984,       646,
   57.7186,       639,
   57.7388,       715,
   57.7591,       798,
   57.7793,       827,
   57.7995,       817,
   57.8197,       817,
   57.8399,       849,
   57.8602,       857,
   57.8804,       806,
   57.9006,       935,
   57.9208,       872,
    57.941,       827,
   57.9612,       882,
   57.9815,       888,
   58.0017,       885,
   58.0219,       880,
   58.0421,       817,
   58.0623,       855,
   58.0826,       848,
   58.1028,       794,
    58.123,       852,
   58.1432,       811,
   58.1634,       750,
   58.1837,       748,
   58.2039,       702,
   58.2241,       747,
   58.2443,       701,
   58.2645,       680,
   58.2847,       639,
    58.305,       638,
   58.3252,       627,
   58.3454,       564,
   58.3656,       579,
   58.3858,       554,
   58.4061,       552,
   58.4263,       501,
   58.4465,       495,
   58.4667,       509,
   58.4869,       476,
   58.5072,       469,
   58.5274,       463,
   58.5476,       446,
   58.5678,       441,
    58.588,       460,
   58.6082,       431,
   58.6285,       427,
   58.6487,       405,
   58.6689,       397,
   58.6891,       389,
   58.7093,       406,
   58.7296,       402,
   58.7498,       391,
     58.77,       391,
   58.7902,       393,
   58.8104,       373,
   58.8307,       362,
   58.8509,       409,
   58.8711,       376,
   58.8913,       407,
   58.9115,       374,
   58.9317,       377,
    58.952,       371,
   58.9722,       383,
   58.9924,       401,
   59.0126,       441,
   59.0328,       464,
   59.0531,       497,
   59.0733,       501,
   59.0935,       536,
   59.1137,       542,
   59.1339,       543,
   59.1542,       546,
   59.1744,       554,
   59.1946,       534,
   59.2148,       506,
    59.235,       471,
   59.2552,       456,
   59.2755,       457,
   59.2957,       423,
   59.3159,       414,
   59.3361,       378,
   59.3563,       358,
   59.3766,       350,
   59.3968,       303,
    59.417,       303,
   59.4372,       312,
   59.4574,       314,
   59.4777,       287,
   59.4979,       295,
   59.5181,       275,
   59.5383,       270,
   59.5585,       286,
   59.5787,       286,
    59.599,       250,
   59.6192,       256,
   59.6394,       305,
   59.6596,       297,
   59.6798,       265,
   59.7001,       278,
   59.7203,       263,
   59.7405,       264,
   59.7607,       260,
   59.7809,       255,
   59.8012,       269,
   59.8214,       265,
   59.8416,       226,
   59.8618,       260,
    59.882,       284,
   59.9022,       234,
   59.9225,       261,
   59.9427,       266,
   59.9629,       242,
   59.9831,       242,
   60.0033,       257,
   60.0236,       269,
   60.0438,       239,
    60.064,       245,
   60.0842,       235,
   60.1044,       219,
   60.1247,       241,
   60.1449,       246,
   60.1651,       217,
   60.1853,       226,
   60.2055,       232,
   60.2257,       255,
    60.246,       209,
   60.2662,       231,
   60.2864,       224,
   60.3066,       218,
   60.3268,       218,
   60.3471,       222,
   60.3673,       219,
   60.3875,       225,
   60.4077,       229,
   60.4279,       212,
   60.4482,       235,
   60.4684,       252,
   60.4886,       223,
   60.5088,       209,
    60.529,       222,
   60.5492,       223,
   60.5695,       209,
   60.5897,       230,
   60.6099,       224,
   60.6301,       225,
   60.6503,       192,
   60.6706,       237,
   60.6908,       216,
    60.711,       218,
   60.7312,       207,
   60.7514,       212,
   60.7717,       229,
   60.7919,       212,
   60.8121,       256,
   60.8323,       214,
   60.8525,       209,
   60.8727,       210,
    60.893,       208,
   60.9132,       208,
   60.9334,       243,
   60.9536,       223,
   60.9738,       203,
   60.9941,       221,
   61.0143,       223,
   61.0345,       214,
   61.0547,       226,
   61.0749,       216,
   61.0952,       241,
   61.1154,       244,
   61.1356,       209,
   61.1558,       234,
    61.176,       242,
   61.1962,       241,
   61.2165,       246,
   61.2367,       221,
   61.2569,       234,
   61.2771,       254,
   61.2973,       218,
   61.3176,       256,
   61.3378,       232,
    61.358,       239,
   61.3782,       228,
   61.3984,       220,
   61.4187,       245,
   61.4389,       242,
   61.4591,       215,
   61.4793,       237,
   61.4995,       229,
   61.5197,       243,
     61.54,       256,
   61.5602,       250,
   61.5804,       255,
   61.6006,       260,
   61.6208,       289,
   61.6411,       323,
   61.6613,       315,
   61.6815,       330,
   61.7017,       346,
   61.7219,       414,
   61.7422,       434,
   61.7624,       453,
   61.7826,       522,
   61.8028,       493,
    61.823,       505,
   61.8432,       468,
   61.8635,       434,
   61.8837,       463,
   61.9039,       449,
   61.9241,       439,
   61.9443,       450,
   61.9646,       405,
   61.9848,       390,
    62.005,       353,
   62.0252,       367,
   62.0454,       333,
   62.0657,       276,
   62.0859,       313,
   62.1061,       276,
   62.1263,       271,
   62.1465,       267,
   62.1667,       261,
    62.187,       304,
   62.2072,       265,
   62.2274,       274,
   62.2476,       281,
   62.2678,       265,
   62.2881,       272,
   62.3083,       301,
   62.3285,       300,
   62.3487,       342,
   62.3689,       318,
   62.3892,       341,
   62.4094,       341,
   62.4296,       377,
   62.4498,       387,
     62.47,       391,
   62.4902,       401,
   62.5105,       361,
   62.5307,       367,
   62.5509,       367,
   62.5711,       351,
   62.5913,       319,
   62.6116,       316,
   62.6318,       302,
    62.652,       287,
   62.6722,       273,
   62.6924,       267,
   62.7127,       252,
   62.7329,       257,
   62.7531,       247,
   62.7733,       222,
   62.7935,       228,
   62.8137,       226,
    62.834,       235,
   62.8542,       218,
   62.8744,       224,
   62.8946,       207,
   62.9148,       199,
   62.9351,       220,
   62.9553,       177,
   62.9755,       209,
   62.9957,       213,
   63.0159,       199,
   63.0362,       179,
   63.0564,       180,
   63.0766,       184,
   63.0968,       188,
    63.117,       179,
   63.1372,       224,
   63.1575,       220,
   63.1777,       212,
   63.1979,       221,
   63.2181,       171,
   63.2383,       199,
   63.2586,       188,
   63.2788,       201,
    63.299,       206,
   63.3192,       199,
   63.3394,       193,
   63.3597,       200,
   63.3799,       186,
   63.4001,       191,
   63.4203,       206,
   63.4405,       209,
   63.4607,       194,
    63.481,       198,
   63.5012,       202,
   63.5214,       231,
   63.5416,       247,
   63.5618,       255,
   63.5821,       234,
   63.6023,       245,
   63.6225,       272,
   63.6427,       226,
   63.6629,       231,
   63.6832,       248,
   63.7034,       261,
   63.7236,       231,
   63.7438,       230,
    63.764,       225,
   63.7842,       237,
   63.8045,       228,
   63.8247,       203,
   63.8449,       206,
   63.8651,       206,
   63.8853,       197,
   63.9056,       210,
   63.9258,       212,
    63.946,       186,
   63.9662,       194,
   63.9864,       192,
   64.0067,       192,
   64.0269,       198,
   64.0471,       168,
   64.0673,       169,
   64.0875,       182,
   64.1077,       191,
    64.128,       187,
   64.1482,       188,
   64.1684,       187,
   64.1886,       171,
   64.2088,       177,
   64.2291,       179,
   64.2493,       152,
   64.2695,       185,
   64.2897,       178,
   64.3099,       168,
   64.3302,       197,
   64.3504,       202,
   64.3706,       184,
   64.3908,       187,
    64.411,       188,
   64.4312,       191,
   64.4515,       178,
   64.4717,       198,
   64.4919,       199,
   64.5121,       192,
   64.5323,       189,
   64.5526,       183,
   64.5728,       172,
    64.593,       192,
   64.6132,       191,
   64.6334,       173,
   64.6537,       191,
   64.6739,       186,
   64.6941,       188,
   64.7143,       208,
   64.7345,       207,
   64.7547,       183,
    64.775,       171,
   64.7952,       178,
   64.8154,       167,
   64.8356,       186,
   64.8558,       169,
   64.8761,       164,
   64.8963,       178,
   64.9165,       178,
   64.9367,       196,
   64.9569,       168,
   64.9772,       180,
   64.9974,       181,
   65.0176,       184,
   65.0378,       192,
    65.058,       207,
   65.0782,       159,
   65.0985,       180,
   65.1187,       158,
   65.1389,       188,
   65.1591,       172,
   65.1793,       209,
   65.1996,       166,
   65.2198,       184,
     65.24,       187,
   65.2602,       157,
   65.2804,       184,
   65.3007,       167,
   65.3209,       178,
   65.3411,       156,
   65.3613,       182,
   65.3815,       185,
   65.4017,       190,
    65.422,       180,
   65.4422,       168,
   65.4624,       187,
   65.4826,       195,
   65.5028,       168,
   65.5231,       185,
   65.5433,       167,
   65.5635,       171,
   65.5837,       170,
   65.6039,       168,
   65.6242,       197,
   65.6444,       181,
   65.6646,       179,
   65.6848,       182,
    65.705,       177,
   65.7252,       176,
   65.7455,       190,
   65.7657,       183,
   65.7859,       176,
   65.8061,       181,
   65.8263,       195,
   65.8466,       176,
   65.8668,       162,
    65.887,       168,
   65.9072,       173,
   65.9274,       184,
   65.9477,       153,
   65.9679,       176,
   65.9881,       171,
   66.0083,       159,
   66.0285,       207,
   66.0487,       180,
    66.069,       189,
   66.0892,       179,
   66.1094,       170,
   66.1296,       178,
   66.1498,       191,
   66.1701,       213,
   66.1903,       202,
   66.2105,       194,
   66.2307,       163,
   66.2509,       182,
   66.2712,       199,
   66.2914,       192,
   66.3116,       218,
   66.3318,       224,
    66.352,       212,
   66.3722,       192,
   66.3925,       182,
   66.4127,       210,
   66.4329,       188,
   66.4531,       189,
   66.4733,       194,
   66.4936,       209,
   66.5138,       203,
    66.534,       197,
   66.5542,       211,
   66.5744,       251,
   66.5947,       224,
   66.6149,       250,
   66.6351,       261,
   66.6553,       287,
   66.6755,       279,
   66.6957,       297,
    66.716,       342,
   66.7362,       333,
   66.7564,       330,
   66.7766,       342,
   66.7968,       369,
   66.8171,       300,
   66.8373,       358,
   66.8575,       320,
   66.8777,       322,
   66.8979,       282,
   66.9182,       295,
   66.9384,       312,
   66.9586,       299,
   66.9788,       287,
    66.999,       261,
   67.0192,       286,
   67.0395,       250,
   67.0597,       254,
   67.0799,       226,
   67.1001,       218,
   67.1203,       220,
   67.1406,       217,
   67.1608,       225,
    67.181,       212,
   67.2012,       210,
   67.2214,       213,
   67.2417,       205,
   67.2619,       214,
   67.2821,       195,
   67.3023,       230,
   67.3225,       209,
   67.3427,       183,
    67.363,       201,
   67.3832,       189,
   67.4034,       189,
   67.4236,       193,
   67.4438,       219,
   67.4641,       209,
   67.4843,       207,
   67.5045,       221,
   67.5247,       212,
   67.5449,       206,
   67.5652,       225,
   67.5854,       230,
   67.6056,       249,
   67.6258,       251,
    67.646,       227,
   67.6663,       252,
   67.6865,       256,
   67.7067,       252,
   67.7269,       248,
   67.7471,       275,
   67.7673,       266,
   67.7876,       261,
   67.8078,       275,
    67.828,       292,
   67.8482,       268,
   67.8684,       261,
   67.8887,       259,
   67.9089,       270,
   67.9291,       272,
   67.9493,       262,
   67.9695,       280,
   67.9898,       285,
     68.01,       296,
   68.0302,       282,
   68.0504,       288,
   68.0706,       255,
   68.0908,       252,
   68.1111,       255,
   68.1313,       267,
   68.1515,       268,
   68.1717,       219,
   68.1919,       262,
   68.2122,       253,
   68.2324,       265,
   68.2526,       233,
   68.2728,       241,
    68.293,       217,
   68.3133,       224,
   68.3335,       244,
   68.3537,       243,
   68.3739,       235,
   68.3941,       267,
   68.4143,       261,
   68.4346,       231,
   68.4548,       250,
    68.475,       238,
   68.4952,       248,
   68.5154,       266,
   68.5357,       279,
   68.5559,       270,
   68.5761,       279,
   68.5963,       303,
   68.6165,       293,
   68.6368,       327,
    68.657,       337,
   68.6772,       368,
   68.6974,       364,
   68.7176,       350,
   68.7378,       353,
   68.7581,       388,
   68.7783,       405,
   68.7985,       374,
   68.8187,       401,
   68.8389,       413,
   68.8592,       432,
   68.8794,       396,
   68.8996,       451,
   68.9198,       419,
     68.94,       438,
   68.9603,       439,
   68.9805,       431,
   69.0007,       401,
   69.0209,       391,
   69.0411,       405,
   69.0613,       417,
   69.0816,       381,
   69.1018,       377,
    69.122,       384,
   69.1422,       365,
   69.1624,       364,
   69.1827,       359,
   69.2029,       357,
   69.2231,       349,
   69.2433,       354,
   69.2635,       368,
   69.2838,       325,
    69.304,       331,
   69.3242,       280,
   69.3444,       313,
   69.3646,       298,
   69.3848,       281,
   69.4051,       278,
   69.4253,       274,
   69.4455,       282,
   69.4657,       270,
   69.4859,       255,
   69.5062,       294,
   69.5264,       254,
   69.5466,       256,
   69.5668,       245,
    69.587,       275,
   69.6073,       243,
   69.6275,       265,
   69.6477,       275,
   69.6679,       248,
   69.6881,       260,
   69.7083,       273,
   69.7286,       232,
   69.7488,       249,
    69.769,       245,
   69.7892,       238,
   69.8094,       230,
   69.8297,       223,
   69.8499,       258,
   69.8701,       250,
   69.8903,       230,
   69.9105,       247,
   69.9308,       259,
    69.951,       238,
   69.9712,       226,
   69.9914,       229,
   70.0116,       230,
