;RAW4.00
[RawHeader]
Date=11/19/2019
EstimatedTotalTime=1741.44
FurtherDQLReading=0
HardwareIndicator=65519
MeasuredTotalTime=1741.44
MeasurementFlag=1
NumberOfMeasuredRanges=1
NumberOfRanges=1
Time=22:30:05

[VarInfo]
Type=USER
Flags=0
Value=Bruker Service

[VarInfo]
Type=SAMPLEID
Flags=0
Value=Commander Sample ID

[VarInfo]
Type=COMMENT
Flags=0
Value=

[VarInfo]
Type=UTF
Flags=0
Value=

[VarInfo]
Type=CREATOR
Flags=0
Value=BrmlToV4Converter

[VarInfo]
Type=CREATOR_VERSION
Flags=0
Value=7.3.0.0

[HardwareConfiguration]
AbsorptionFactor=9999
ActivateAbsorber=0
Alpha1=1.78897
Alpha2=1.79285
AlphaAverage=1.79026
AlphaRatio=0.5
Analyzer=0
Anode=Co
AntiScatteringSlit=9999
BeamOpticsFlags=0
Beta=1.62079
BetaRelativeIntensity=0
DeactivateAbsorber=0
DetectorSlit=9999
DivergenceSlit=1
GoniometerControl=0
GoniometerDiameter=282
GoniometerModel=256
GoniometerStage=7
Monochromator=0
NearSampleSlit=9999
PrimarySollerSlit=9999
SampleChanger=0
SecondSollerSlit=9999
SynchronousAxis=0
ThinFilmAttachment=9999
WaveUnit=A

[RangeHeader]
ActuallyUsedLambda=1.79026
AdditionalDetectorMask=257
DataRecordLength=4
DelayTime=0
DisplayPlaneNumber=0
EstimatedScanTime=1741
ExtraParametersMask=0
GeneratorCurrent=10
GeneratorVoltage=30
Increment=0.0202188
Increment3=0
NumberOfCompletedData=3216
NumberOfCounts=1
NumberOfDetectors=0
NumberOfDrives=2
NumberOfEncoderDrives=0
NumberOfMeasuredData=3216
NumberOfVaryingParameters=0
RangeStartTime=0
RotationSpeed=1
ScanMode=1
ScanType=Locked Coupled
SimulatedMeasConditions=0
SlitChangerIn=0
SmootingWidth=0
Start=5.00234
Steps=3216
SynchronousRotation=0
Time=82.5

[VarInfo]
Type=PSD_DISCRIM
Flags=0
Value=0.11;0.25

[PSD]
ActualTwoTheta=9999
FirstUsedChannel=0
FixedPSD=0
PSDOpening=5.00414
PSDType=5

[Drive]
DriveFlags=1
DriveName=2Theta
DriveNumber=2
DriveOffset=0
OffsetIndex=0
OscillationAmplitude=0
OscillationSpeed=0
StartPosition=5.00234

[Drive]
DriveFlags=1
DriveName=Theta
DriveNumber=1
DriveOffset=0
OffsetIndex=0
OscillationAmplitude=0
OscillationSpeed=0
StartPosition=2.50117

[Data]
     Angle,       PSD,
   5.00234,      2919,
   5.02256,      2913,
   5.04278,      2922,
     5.063,      2894,
   5.08322,      2877,
   5.10344,      2892,
   5.12365,      2887,
   5.14387,      2735,
   5.16409,      2753,
   5.18431,      2800,
   5.20453,      2797,
   5.22475,      2751,
   5.24497,      2702,
   5.26519,      2686,
    5.2854,      2711,
   5.30562,      2501,
   5.32584,      2645,
   5.34606,      2563,
   5.36628,      2568,
    5.3865,      2594,
   5.40672,      2571,
   5.42694,      2422,
   5.44715,      2527,
   5.46737,      2369,
   5.48759,      2439,
   5.50781,      2435,
   5.52803,      2431,
   5.54825,      2428,
   5.56847,      2329,
   5.58869,      2354,
    5.6089,      2289,
   5.62912,      2223,
   5.64934,      2287,
   5.66956,      2275,
   5.68978,      2296,
      5.71,      2263,
   5.73022,      2189,
   5.75044,      2178,
   5.77065,      2275,
   5.79087,      2163,
   5.81109,      2121,
   5.83131,      2089,
   5.85153,      2082,
   5.87175,      2126,
   5.89197,      2041,
   5.91219,      2067,
    5.9324,      1970,
   5.95262,      2113,
   5.97284,      2096,
   5.99306,      2046,
   6.01328,      2066,
    6.0335,      2012,
   6.05372,      2024,
   6.07394,      1927,
   6.09415,      1967,
   6.11437,      1926,
   6.13459,      1891,
   6.15481,      1935,
   6.17503,      1864,
   6.19525,      1851,
   6.21547,      1843,
   6.23569,      1827,
    6.2559,      1794,
   6.27612,      1758,
   6.29634,      1752,
   6.31656,      1760,
   6.33678,      1736,
     6.357,      1770,
   6.37722,      1690,
   6.39744,      1763,
   6.41765,      1753,
   6.43787,      1744,
   6.45809,      1731,
   6.47831,      1613,
   6.49853,      1684,
   6.51875,      1664,
   6.53897,      1640,
   6.55919,      1603,
    6.5794,      1658,
   6.59962,      1584,
   6.61984,      1572,
   6.64006,      1579,
   6.66028,      1499,
    6.6805,      1590,
   6.70072,      1517,
   6.72094,      1540,
   6.74116,      1535,
   6.76137,      1468,
   6.78159,      1449,
   6.80181,      1518,
   6.82203,      1520,
   6.84225,      1543,
   6.86247,      1292,
   6.88269,      1450,
   6.90291,      1389,
   6.92312,      1368,
   6.94334,      1387,
   6.96356,      1368,
   6.98378,      1353,
     7.004,      1305,
   7.02422,      1356,
   7.04444,      1315,
   7.06466,      1320,
   7.08487,      1300,
   7.10509,      1302,
   7.12531,      1278,
   7.14553,      1209,
   7.16575,      1254,
   7.18597,      1214,
   7.20619,      1218,
   7.22641,      1294,
   7.24662,      1188,
   7.26684,      1232,
   7.28706,      1172,
   7.30728,      1181,
    7.3275,      1233,
   7.34772,      1172,
   7.36794,      1133,
   7.38816,      1159,
   7.40837,      1184,
   7.42859,      1170,
   7.44881,      1150,
   7.46903,      1129,
   7.48925,      1178,
   7.50947,      1095,
   7.52969,      1096,
   7.54991,      1116,
   7.57012,      1113,
   7.59034,      1103,
   7.61056,      1098,
   7.63078,      1066,
     7.651,      1043,
   7.67122,      1026,
   7.69144,      1071,
   7.71166,       978,
   7.73187,      1007,
   7.75209,      1016,
   7.77231,      1008,
   7.79253,      1054,
   7.81275,      1013,
   7.83297,      1059,
   7.85319,       919,
   7.87341,      1017,
   7.89362,       941,
   7.91384,       958,
   7.93406,       949,
   7.95428,       924,
    7.9745,       868,
   7.99472,       925,
   8.01494,       950,
   8.03516,       966,
   8.05537,       909,
   8.07559,       856,
   8.09581,       828,
   8.11603,       859,
   8.13625,       822,
   8.15647,       919,
   8.17669,       799,
   8.19691,       850,
   8.21712,       905,
   8.23734,       817,
   8.25756,       849,
   8.27778,       891,
     8.298,       787,
   8.31822,       856,
   8.33844,       844,
   8.35866,       814,
   8.37887,       818,
   8.39909,       850,
   8.41931,       810,
   8.43953,       757,
   8.45975,       765,
   8.47997,       774,
   8.50019,       824,
   8.52041,       763,
   8.54062,       805,
   8.56084,       758,
   8.58106,       790,
   8.60128,       744,
    8.6215,       787,
   8.64172,       773,
   8.66194,       799,
   8.68216,       758,
   8.70237,       751,
   8.72259,       761,
   8.74281,       780,
   8.76303,       714,
   8.78325,       733,
   8.80347,       710,
   8.82369,       684,
   8.84391,       703,
   8.86413,       728,
   8.88434,       704,
   8.90456,       725,
   8.92478,       684,
     8.945,       681,
   8.96522,       640,
   8.98544,       719,
   9.00566,       659,
   9.02588,       683,
   9.04609,       662,
   9.06631,       678,
   9.08653,       662,
   9.10675,       736,
   9.12697,       644,
   9.14719,       664,
   9.16741,       668,
   9.18763,       623,
   9.20784,       636,
   9.22806,       636,
   9.24828,       619,
    9.2685,       664,
   9.28872,       626,
   9.30894,       557,
   9.32916,       622,
   9.34938,       683,
   9.36959,       639,
   9.38981,       658,
   9.41003,       645,
   9.43025,       562,
   9.45047,       651,
   9.47069,       654,
   9.49091,       615,
   9.51113,       636,
   9.53134,       639,
   9.55156,       652,
   9.57178,       576,
     9.592,       669,
   9.61222,       545,
   9.63244,       618,
   9.65266,       635,
   9.67288,       632,
   9.69309,       648,
   9.71331,       627,
   9.73353,       581,
   9.75375,       608,
   9.77397,       628,
   9.79419,       626,
   9.81441,       626,
   9.83463,       636,
   9.85484,       614,
   9.87506,       612,
   9.89528,       584,
    9.9155,       593,
   9.93572,       589,
   9.95594,       550,
   9.97616,       588,
   9.99638,       588,
   10.0166,       593,
   10.0368,       587,
    10.057,       565,
   10.0773,       604,
   10.0975,       588,
   10.1177,       594,
   10.1379,       595,
   10.1581,       591,
   10.1783,       589,
   10.1986,       579,
   10.2188,       596,
    10.239,       565,
   10.2592,       620,
   10.2794,       606,
   10.2997,       570,
   10.3199,       578,
   10.3401,       574,
   10.3603,       590,
   10.3805,       572,
   10.4008,       565,
    10.421,       560,
   10.4412,       582,
   10.4614,       521,
   10.4816,       551,
   10.5018,       508,
   10.5221,       583,
   10.5423,       568,
   10.5625,       548,
   10.5827,       548,
   10.6029,       504,
   10.6232,       572,
   10.6434,       497,
   10.6636,       568,
   10.6838,       567,
    10.704,       568,
   10.7243,       527,
   10.7445,       545,
   10.7647,       529,
   10.7849,       531,
   10.8051,       578,
   10.8253,       493,
   10.8456,       548,
   10.8658,       569,
    10.886,       504,
   10.9062,       504,
   10.9264,       479,
   10.9467,       485,
   10.9669,       538,
   10.9871,       509,
   11.0073,       544,
   11.0275,       545,
   11.0478,       513,
    11.068,       529,
   11.0882,       535,
   11.1084,       518,
   11.1286,       552,
   11.1488,       458,
   11.1691,       485,
   11.1893,       500,
   11.2095,       517,
   11.2297,       511,
   11.2499,       479,
   11.2702,       532,
   11.2904,       544,
   11.3106,       513,
   11.3308,       505,
    11.351,       510,
   11.3713,       539,
   11.3915,       509,
   11.4117,       511,
   11.4319,       550,
   11.4521,       487,
   11.4723,       488,
   11.4926,       538,
   11.5128,       526,
    11.533,       566,
   11.5532,       486,
   11.5734,       490,
   11.5937,       469,
   11.6139,       524,
   11.6341,       498,
   11.6543,       509,
   11.6745,       547,
   11.6948,       488,
    11.715,       534,
   11.7352,       466,
   11.7554,       494,
   11.7756,       492,
   11.7958,       501,
   11.8161,       467,
   11.8363,       460,
   11.8565,       505,
   11.8767,       516,
   11.8969,       469,
   11.9172,       489,
   11.9374,       520,
   11.9576,       496,
   11.9778,       494,
    11.998,       501,
   12.0183,       515,
   12.0385,       445,
   12.0587,       457,
   12.0789,       459,
   12.0991,       492,
   12.1193,       488,
   12.1396,       470,
   12.1598,       500,
     12.18,       461,
   12.2002,       508,
   12.2204,       467,
   12.2407,       516,
   12.2609,       485,
   12.2811,       479,
   12.3013,       503,
   12.3215,       443,
   12.3418,       463,
    12.362,       502,
   12.3822,       502,
   12.4024,       506,
   12.4226,       493,
   12.4428,       548,
   12.4631,       556,
   12.4833,       630,
   12.5035,       675,
   12.5237,       669,
   12.5439,       715,
   12.5642,       743,
   12.5844,       801,
   12.6046,       841,
   12.6248,       887,
    12.645,       898,
   12.6653,       909,
   12.6855,       958,
   12.7057,       853,
   12.7259,       867,
   12.7461,       742,
   12.7663,       713,
   12.7866,       588,
   12.8068,       557,
    12.827,       533,
   12.8472,       494,
   12.8674,       478,
   12.8877,       536,
   12.9079,       496,
   12.9281,       532,
   12.9483,       548,
   12.9685,       503,
   12.9888,       485,
    13.009,       494,
   13.0292,       521,
   13.0494,       506,
   13.0696,       483,
   13.0898,       492,
   13.1101,       530,
   13.1303,       532,
   13.1505,       505,
   13.1707,       509,
   13.1909,       483,
   13.2112,       491,
   13.2314,       581,
   13.2516,       578,
   13.2718,       528,
    13.292,       532,
   13.3123,       605,
   13.3325,       567,
   13.3527,       629,
   13.3729,       631,
   13.3931,       666,
   13.4133,       659,
   13.4336,       725,
   13.4538,       697,
    13.474,       804,
   13.4942,       854,
   13.5144,       931,
   13.5347,       923,
   13.5549,      1026,
   13.5751,      1074,
   13.5953,      1210,
   13.6155,      1434,
   13.6358,      1571,
    13.656,      1819,
   13.6762,      2271,
   13.6964,      2576,
   13.7166,      3387,
   13.7368,      4354,
   13.7571,      5816,
   13.7773,      7581,
   13.7975,      9930,
   13.8177,     14108,
   13.8379,     18475,
   13.8582,     21937,
   13.8784,     23769,
   13.8986,     25272,
   13.9188,     26582,
    13.939,     28561,
   13.9593,     30357,
   13.9795,     31514,
   13.9997,     29270,
   14.0199,     24101,
   14.0401,     16594,
   14.0603,      9482,
   14.0806,      4702,
   14.1008,      2403,
    14.121,      1778,
   14.1412,      1553,
   14.1614,      1495,
   14.1817,      1452,
   14.2019,      1323,
   14.2221,      1354,
   14.2423,      1326,
   14.2625,      1293,
   14.2828,      1151,
    14.303,      1080,
   14.3232,      1022,
   14.3434,      1019,
   14.3636,       950,
   14.3838,       807,
   14.4041,       717,
   14.4243,       737,
   14.4445,       626,
   14.4647,       714,
   14.4849,       695,
   14.5052,       616,
   14.5254,       629,
   14.5456,       613,
   14.5658,       590,
    14.586,       613,
   14.6063,       588,
   14.6265,       655,
   14.6467,       610,
   14.6669,       560,
   14.6871,       562,
   14.7073,       560,
   14.7276,       657,
   14.7478,       577,
    14.768,       567,
   14.7882,       545,
   14.8084,       514,
   14.8287,       592,
   14.8489,       547,
   14.8691,       566,
   14.8893,       568,
   14.9095,       587,
   14.9298,       547,
     14.95,       548,
   14.9702,       558,
   14.9904,       541,
   15.0106,       515,
   15.0308,       525,
   15.0511,       527,
   15.0713,       534,
   15.0915,       536,
   15.1117,       514,
   15.1319,       508,
   15.1522,       523,
   15.1724,       506,
   15.1926,       485,
   15.2128,       566,
    15.233,       526,
   15.2533,       507,
   15.2735,       513,
   15.2937,       505,
   15.3139,       508,
   15.3341,       514,
   15.3543,       516,
   15.3746,       492,
   15.3948,       493,
    15.415,       486,
   15.4352,       515,
   15.4554,       489,
   15.4757,       463,
   15.4959,       502,
   15.5161,       480,
   15.5363,       486,
   15.5565,       493,
   15.5768,       474,
    15.597,       456,
   15.6172,       474,
   15.6374,       471,
   15.6576,       507,
   15.6778,       479,
   15.6981,       484,
   15.7183,       508,
   15.7385,       484,
   15.7587,       471,
   15.7789,       469,
   15.7992,       504,
   15.8194,       468,
   15.8396,       502,
   15.8598,       517,
     15.88,       452,
   15.9003,       485,
   15.9205,       441,
   15.9407,       477,
   15.9609,       494,
   15.9811,       518,
   16.0013,       502,
   16.0216,       486,
   16.0418,       500,
    16.062,       468,
   16.0822,       481,
   16.1024,       516,
   16.1227,       477,
   16.1429,       446,
   16.1631,       471,
   16.1833,       434,
   16.2035,       413,
   16.2238,       518,
    16.244,       445,
   16.2642,       454,
   16.2844,       452,
   16.3046,       445,
   16.3248,       464,
   16.3451,       395,
   16.3653,       484,
   16.3855,       466,
   16.4057,       434,
   16.4259,       448,
   16.4462,       449,
   16.4664,       422,
   16.4866,       404,
   16.5068,       433,
    16.527,       414,
   16.5473,       459,
   16.5675,       417,
   16.5877,       426,
   16.6079,       407,
   16.6281,       421,
   16.6483,       401,
   16.6686,       415,
   16.6888,       420,
    16.709,       432,
   16.7292,       399,
   16.7494,       399,
   16.7697,       448,
   16.7899,       422,
   16.8101,       418,
   16.8303,       463,
   16.8505,       422,
   16.8708,       447,
    16.891,       435,
   16.9112,       429,
   16.9314,       463,
   16.9516,       420,
   16.9718,       429,
   16.9921,       437,
   17.0123,       416,
   17.0325,       457,
   17.0527,       466,
   17.0729,       411,
   17.0932,       450,
   17.1134,       428,
   17.1336,       411,
   17.1538,       427,
    17.174,       425,
   17.1943,       404,
   17.2145,       419,
   17.2347,       436,
   17.2549,       454,
   17.2751,       409,
   17.2953,       438,
   17.3156,       407,
   17.3358,       423,
    17.356,       419,
   17.3762,       443,
   17.3964,       391,
   17.4167,       421,
   17.4369,       448,
   17.4571,       441,
   17.4773,       427,
   17.4975,       444,
   17.5178,       460,
    17.538,       439,
   17.5582,       440,
   17.5784,       419,
   17.5986,       459,
   17.6188,       415,
   17.6391,       435,
   17.6593,       384,
   17.6795,       420,
   17.6997,       403,
   17.7199,       380,
   17.7402,       391,
   17.7604,       373,
   17.7806,       422,
   17.8008,       434,
    17.821,       408,
   17.8413,       391,
   17.8615,       421,
   17.8817,       413,
   17.9019,       360,
   17.9221,       390,
   17.9423,       384,
   17.9626,       375,
   17.9828,       408,
    18.003,       393,
   18.0232,       368,
   18.0434,       359,
   18.0637,       398,
   18.0839,       372,
   18.1041,       407,
   18.1243,       362,
   18.1445,       377,
   18.1648,       406,
    18.185,       386,
   18.2052,       363,
   18.2254,       382,
   18.2456,       395,
   18.2658,       397,
   18.2861,       397,
   18.3063,       382,
   18.3265,       416,
   18.3467,       384,
   18.3669,       377,
   18.3872,       382,
   18.4074,       372,
   18.4276,       374,
   18.4478,       399,
    18.468,       426,
   18.4883,       398,
   18.5085,       402,
   18.5287,       393,
   18.5489,       370,
   18.5691,       414,
   18.5893,       374,
   18.6096,       410,
   18.6298,       381,
     18.65,       395,
   18.6702,       356,
   18.6904,       396,
   18.7107,       398,
   18.7309,       395,
   18.7511,       358,
   18.7713,       368,
   18.7915,       366,
   18.8118,       345,
    18.832,       372,
   18.8522,       361,
   18.8724,       373,
   18.8926,       393,
   18.9128,       356,
   18.9331,       375,
   18.9533,       393,
   18.9735,       384,
   18.9937,       363,
   19.0139,       376,
   19.0342,       346,
   19.0544,       354,
   19.0746,       342,
   19.0948,       403,
    19.115,       395,
   19.1353,       399,
   19.1555,       370,
   19.1757,       356,
   19.1959,       345,
   19.2161,       365,
   19.2363,       369,
   19.2566,       371,
   19.2768,       371,
    19.297,       373,
   19.3172,       331,
   19.3374,       392,
   19.3577,       379,
   19.3779,       399,
   19.3981,       390,
   19.4183,       342,
   19.4385,       391,
   19.4588,       355,
    19.479,       365,
   19.4992,       386,
   19.5194,       373,
   19.5396,       354,
   19.5599,       342,
   19.5801,       408,
   19.6003,       391,
   19.6205,       371,
   19.6407,       371,
   19.6609,       355,
   19.6812,       386,
   19.7014,       347,
   19.7216,       353,
   19.7418,       345,
    19.762,       372,
   19.7823,       347,
   19.8025,       374,
   19.8227,       346,
   19.8429,       375,
   19.8631,       385,
   19.8834,       379,
   19.9036,       375,
   19.9238,       368,
    19.944,       366,
   19.9642,       346,
   19.9844,       351,
   20.0047,       366,
   20.0249,       344,
   20.0451,       361,
   20.0653,       364,
   20.0855,       340,
   20.1058,       340,
    20.126,       367,
   20.1462,       364,
   20.1664,       355,
   20.1866,       370,
   20.2069,       351,
   20.2271,       381,
   20.2473,       335,
   20.2675,       309,
   20.2877,       316,
   20.3079,       343,
   20.3282,       417,
   20.3484,       401,
   20.3686,       379,
   20.3888,       354,
    20.409,       347,
   20.4293,       372,
   20.4495,       356,
   20.4697,       370,
   20.4899,       326,
   20.5101,       308,
   20.5304,       376,
   20.5506,       373,
   20.5708,       340,
    20.591,       327,
   20.6112,       357,
   20.6314,       342,
   20.6517,       376,
   20.6719,       354,
   20.6921,       354,
   20.7123,       348,
   20.7325,       328,
   20.7528,       342,
    20.773,       319,
   20.7932,       313,
   20.8134,       370,
   20.8336,       375,
   20.8539,       392,
   20.8741,       372,
   20.8943,       347,
   20.9145,       328,
   20.9347,       372,
   20.9549,       351,
   20.9752,       294,
   20.9954,       323,
   21.0156,       318,
   21.0358,       344,
    21.056,       355,
   21.0763,       357,
   21.0965,       314,
   21.1167,       408,
   21.1369,       374,
   21.1571,       344,
   21.1774,       317,
   21.1976,       365,
   21.2178,       361,
    21.238,       325,
   21.2582,       346,
   21.2784,       368,
   21.2987,       323,
   21.3189,       372,
   21.3391,       325,
   21.3593,       391,
   21.3795,       374,
   21.3998,       358,
     21.42,       370,
   21.4402,       355,
   21.4604,       346,
   21.4806,       373,
   21.5009,       332,
   21.5211,       340,
   21.5413,       378,
   21.5615,       346,
   21.5817,       376,
   21.6019,       334,
   21.6222,       343,
   21.6424,       347,
   21.6626,       327,
   21.6828,       358,
    21.703,       334,
   21.7233,       354,
   21.7435,       358,
   21.7637,       334,
   21.7839,       335,
   21.8041,       349,
   21.8244,       390,
   21.8446,       379,
   21.8648,       376,
    21.885,       328,
   21.9052,       364,
   21.9254,       352,
   21.9457,       361,
   21.9659,       327,
   21.9861,       365,
   22.0063,       331,
   22.0265,       371,
   22.0468,       380,
    22.067,       351,
   22.0872,       335,
   22.1074,       394,
   22.1276,       415,
   22.1479,       389,
   22.1681,       422,
   22.1883,       435,
   22.2085,       364,
   22.2287,       426,
   22.2489,       464,
   22.2692,       419,
   22.2894,       425,
   22.3096,       451,
   22.3298,       371,
     22.35,       372,
   22.3703,       367,
   22.3905,       365,
   22.4107,       370,
   22.4309,       355,
   22.4511,       383,
   22.4714,       353,
   22.4916,       358,
   22.5118,       349,
    22.532,       359,
   22.5522,       385,
   22.5724,       387,
   22.5927,       363,
   22.6129,       359,
   22.6331,       379,
   22.6533,       381,
   22.6735,       371,
   22.6938,       347,
    22.714,       340,
   22.7342,       344,
   22.7544,       355,
   22.7746,       321,
   22.7949,       358,
   22.8151,       351,
   22.8353,       355,
   22.8555,       377,
   22.8757,       347,
   22.8959,       332,
   22.9162,       371,
   22.9364,       370,
   22.9566,       340,
   22.9768,       366,
    22.997,       366,
   23.0173,       336,
   23.0375,       360,
   23.0577,       356,
   23.0779,       349,
   23.0981,       366,
   23.1184,       357,
   23.1386,       382,
   23.1588,       378,
    23.179,       384,
   23.1992,       328,
   23.2194,       384,
   23.2397,       369,
   23.2599,       389,
   23.2801,       359,
   23.3003,       335,
   23.3205,       350,
   23.3408,       360,
    23.361,       370,
   23.3812,       365,
   23.4014,       337,
   23.4216,       337,
   23.4419,       341,
   23.4621,       361,
   23.4823,       341,
   23.5025,       339,
   23.5227,       401,
   23.5429,       358,
   23.5632,       337,
   23.5834,       381,
   23.6036,       354,
   23.6238,       365,
    23.644,       372,
   23.6643,       348,
   23.6845,       369,
   23.7047,       369,
   23.7249,       373,
   23.7451,       361,
   23.7654,       352,
   23.7856,       366,
   23.8058,       348,
    23.826,       370,
   23.8462,       372,
   23.8664,       384,
   23.8867,       375,
   23.9069,       376,
   23.9271,       415,
   23.9473,       390,
   23.9675,       399,
   23.9878,       393,
    24.008,       400,
   24.0282,       408,
   24.0484,       422,
   24.0686,       442,
   24.0889,       426,
   24.1091,       420,
   24.1293,       452,
   24.1495,       385,
   24.1697,       476,
   24.1899,       463,
   24.2102,       457,
   24.2304,       511,
   24.2506,       523,
   24.2708,       577,
    24.291,       583,
   24.3113,       679,
   24.3315,       796,
   24.3517,       882,
   24.3719,      1025,
   24.3921,      1215,
   24.4124,      1414,
   24.4326,      1584,
   24.4528,      1810,
    24.473,      2085,
   24.4932,      2469,
   24.5134,      2714,
   24.5337,      3074,
   24.5539,      3456,
   24.5741,      3442,
   24.5943,      3338,
   24.6145,      2957,
   24.6348,      2344,
    24.655,      1740,
   24.6752,      1311,
   24.6954,       905,
   24.7156,       812,
   24.7359,       674,
   24.7561,       566,
   24.7763,       591,
   24.7965,       532,
   24.8167,       512,
   24.8369,       476,
   24.8572,       486,
   24.8774,       472,
   24.8976,       512,
   24.9178,       450,
    24.938,       524,
   24.9583,       528,
   24.9785,       541,
   24.9987,       438,
   25.0189,       521,
   25.0391,       483,
   25.0594,       476,
   25.0796,       511,
   25.0998,       468,
     25.12,       443,
   25.1402,       439,
   25.1604,       367,
   25.1807,       368,
   25.2009,       368,
   25.2211,       375,
   25.2413,       382,
   25.2615,       363,
   25.2818,       382,
    25.302,       389,
   25.3222,       341,
   25.3424,       359,
   25.3626,       343,
   25.3829,       363,
   25.4031,       369,
   25.4233,       336,
   25.4435,       345,
   25.4637,       337,
   25.4839,       357,
   25.5042,       373,
   25.5244,       378,
   25.5446,       342,
   25.5648,       341,
    25.585,       357,
   25.6053,       384,
   25.6255,       341,
   25.6457,       362,
   25.6659,       368,
   25.6861,       329,
   25.7064,       361,
   25.7266,       320,
   25.7468,       352,
    25.767,       305,
   25.7872,       341,
   25.8074,       341,
   25.8277,       358,
   25.8479,       354,
   25.8681,       343,
   25.8883,       363,
   25.9085,       304,
   25.9288,       367,
    25.949,       297,
   25.9692,       342,
   25.9894,       342,
   26.0096,       372,
   26.0299,       358,
   26.0501,       327,
   26.0703,       360,
   26.0905,       332,
   26.1107,       326,
   26.1309,       351,
   26.1512,       329,
   26.1714,       343,
   26.1916,       357,
   26.2118,       363,
    26.232,       364,
   26.2523,       344,
   26.2725,       351,
   26.2927,       346,
   26.3129,       335,
   26.3331,       362,
   26.3534,       349,
   26.3736,       341,
   26.3938,       339,
    26.414,       363,
   26.4342,       383,
   26.4544,       355,
   26.4747,       339,
   26.4949,       341,
   26.5151,       364,
   26.5353,       336,
   26.5555,       357,
   26.5758,       346,
    26.596,       371,
   26.6162,       352,
   26.6364,       320,
   26.6566,       354,
   26.6769,       331,
   26.6971,       364,
   26.7173,       345,
   26.7375,       344,
   26.7577,       367,
   26.7779,       334,
   26.7982,       327,
   26.8184,       346,
   26.8386,       331,
   26.8588,       350,
    26.879,       351,
   26.8993,       379,
   26.9195,       364,
   26.9397,       351,
   26.9599,       372,
   26.9801,       371,
   27.0004,       390,
   27.0206,       354,
   27.0408,       383,
    27.061,       378,
   27.0812,       399,
   27.1014,       411,
   27.1217,       418,
   27.1419,       403,
   27.1621,       382,
   27.1823,       447,
   27.2025,       477,
   27.2228,       410,
    27.243,       435,
   27.2632,       461,
   27.2834,       442,
   27.3036,       485,
   27.3239,       494,
   27.3441,       451,
   27.3643,       548,
   27.3845,       572,
   27.4047,       617,
   27.4249,       726,
   27.4452,       882,
   27.4654,      1052,
   27.4856,      1283,
   27.5058,      1748,
    27.526,      2350,
   27.5463,      3015,
   27.5665,      3761,
   27.5867,      4288,
   27.6069,      4743,
   27.6271,      5270,
   27.6474,      6008,
   27.6676,      6195,
   27.6878,      5908,
    27.708,      5235,
   27.7282,      4074,
   27.7484,      2976,
   27.7687,      2121,
   27.7889,      1454,
   27.8091,       938,
   27.8293,       707,
   27.8495,       604,
   27.8698,       567,
     27.89,       530,
   27.9102,       518,
   27.9304,       493,
   27.9506,       481,
   27.9709,       497,
   27.9911,       501,
   28.0113,       464,
   28.0315,       475,
   28.0517,       458,
   28.0719,       416,
   28.0922,       382,
   28.1124,       391,
   28.1326,       370,
   28.1528,       386,
    28.173,       373,
   28.1933,       370,
   28.2135,       375,
   28.2337,       382,
   28.2539,       349,
   28.2741,       371,
   28.2944,       340,
   28.3146,       331,
   28.3348,       341,
    28.355,       353,
   28.3752,       367,
   28.3954,       353,
   28.4157,       378,
   28.4359,       351,
   28.4561,       299,
   28.4763,       389,
   28.4965,       331,
   28.5168,       331,
    28.537,       312,
   28.5572,       347,
   28.5774,       351,
   28.5976,       349,
   28.6179,       309,
   28.6381,       360,
   28.6583,       353,
   28.6785,       350,
   28.6987,       355,
   28.7189,       328,
   28.7392,       351,
   28.7594,       331,
   28.7796,       349,
   28.7998,       382,
     28.82,       357,
   28.8403,       342,
   28.8605,       347,
   28.8807,       368,
   28.9009,       318,
   28.9211,       352,
   28.9414,       325,
   28.9616,       346,
   28.9818,       357,
    29.002,       337,
   29.0222,       332,
   29.0424,       363,
   29.0627,       366,
   29.0829,       398,
   29.1031,       322,
   29.1233,       340,
   29.1435,       337,
   29.1638,       335,
    29.184,       360,
   29.2042,       344,
   29.2244,       334,
   29.2446,       328,
   29.2649,       332,
   29.2851,       296,
   29.3053,       333,
   29.3255,       333,
   29.3457,       359,
   29.3659,       329,
   29.3862,       368,
   29.4064,       326,
   29.4266,       366,
   29.4468,       349,
    29.467,       334,
   29.4873,       310,
   29.5075,       305,
   29.5277,       340,
   29.5479,       359,
   29.5681,       326,
   29.5884,       310,
   29.6086,       322,
   29.6288,       280,
    29.649,       326,
   29.6692,       351,
   29.6894,       319,
   29.7097,       340,
   29.7299,       349,
   29.7501,       351,
   29.7703,       309,
   29.7905,       318,
   29.8108,       301,
    29.831,       330,
   29.8512,       316,
   29.8714,       320,
   29.8916,       351,
   29.9119,       325,
   29.9321,       354,
   29.9523,       341,
   29.9725,       318,
   29.9927,       320,
   30.0129,       307,
   30.0332,       346,
   30.0534,       352,
   30.0736,       332,
   30.0938,       354,
    30.114,       333,
   30.1343,       324,
   30.1545,       316,
   30.1747,       341,
   30.1949,       376,
   30.2151,       425,
   30.2354,       347,
   30.2556,       375,
   30.2758,       386,
    30.296,       335,
   30.3162,       323,
   30.3365,       338,
   30.3567,       370,
   30.3769,       339,
   30.3971,       426,
   30.4173,       358,
   30.4375,       374,
   30.4578,       363,
    30.478,       348,
   30.4982,       387,
   30.5184,       399,
   30.5386,       399,
   30.5589,       364,
   30.5791,       372,
   30.5993,       378,
   30.6195,       390,
   30.6397,       422,
     30.66,       515,
   30.6802,       458,
   30.7004,       462,
   30.7206,       546,
   30.7408,       605,
    30.761,       672,
   30.7813,       821,
   30.8015,       913,
   30.8217,       992,
   30.8419,      1185,
   30.8621,      1257,
   30.8824,      1457,
   30.9026,      1611,
   30.9228,      1734,
    30.943,      1731,
   30.9632,      1812,
   30.9835,      1606,
   31.0037,      1479,
   31.0239,      1207,
   31.0441,      1015,
   31.0643,       870,
   31.0845,       734,
   31.1048,       640,
    31.125,       531,
   31.1452,       445,
   31.1654,       457,
   31.1856,       433,
   31.2059,       375,
   31.2261,       425,
   31.2463,       368,
   31.2665,       381,
   31.2867,       377,
    31.307,       361,
   31.3272,       385,
   31.3474,       382,
   31.3676,       378,
   31.3878,       373,
    31.408,       338,
   31.4283,       372,
   31.4485,       359,
   31.4687,       339,
   31.4889,       334,
   31.5091,       359,
   31.5294,       342,
   31.5496,       346,
   31.5698,       346,
     31.59,       349,
   31.6102,       350,
   31.6305,       360,
   31.6507,       356,
   31.6709,       332,
   31.6911,       376,
   31.7113,       365,
   31.7315,       385,
   31.7518,       397,
    31.772,       375,
   31.7922,       393,
   31.8124,       391,
   31.8326,       385,
   31.8529,       409,
   31.8731,       439,
   31.8933,       485,
   31.9135,       500,
   31.9337,       510,
    31.954,       584,
   31.9742,       653,
   31.9944,       695,
   32.0146,       835,
   32.0348,       881,
    32.055,      1024,
   32.0753,      1037,
   32.0955,      1143,
   32.1157,      1169,
   32.1359,      1199,
   32.1561,      1140,
   32.1764,      1105,
   32.1966,      1044,
   32.2168,       925,
    32.237,       980,
   32.2572,      1050,
   32.2775,       938,
   32.2977,       895,
   32.3179,       874,
   32.3381,       823,
   32.3583,       717,
   32.3785,       655,
   32.3988,       579,
    32.419,       525,
   32.4392,       475,
   32.4594,       454,
   32.4796,       406,
   32.4999,       388,
   32.5201,       344,
   32.5403,       335,
   32.5605,       366,
   32.5807,       358,
    32.601,       277,
   32.6212,       344,
   32.6414,       321,
   32.6616,       312,
   32.6818,       331,
    32.702,       319,
   32.7223,       314,
   32.7425,       313,
   32.7627,       323,
   32.7829,       335,
   32.8031,       330,
   32.8234,       329,
   32.8436,       309,
   32.8638,       295,
    32.884,       346,
   32.9042,       331,
   32.9245,       314,
   32.9447,       335,
   32.9649,       322,
   32.9851,       332,
   33.0053,       366,
   33.0255,       375,
   33.0458,       344,
    33.066,       383,
   33.0862,       339,
   33.1064,       363,
   33.1266,       376,
   33.1469,       367,
   33.1671,       376,
   33.1873,       419,
   33.2075,       349,
   33.2277,       402,
    33.248,       374,
   33.2682,       365,
   33.2884,       381,
   33.3086,       332,
   33.3288,       326,
    33.349,       316,
   33.3693,       361,
   33.3895,       366,
   33.4097,       317,
   33.4299,       327,
   33.4501,       317,
   33.4704,       335,
   33.4906,       317,
   33.5108,       316,
    33.531,       295,
   33.5512,       323,
   33.5715,       360,
   33.5917,       357,
   33.6119,       315,
   33.6321,       319,
   33.6523,       360,
   33.6725,       364,
   33.6928,       413,
    33.713,       364,
   33.7332,       360,
   33.7534,       415,
   33.7736,       469,
   33.7939,       469,
   33.8141,       487,
   33.8343,       473,
   33.8545,       477,
   33.8747,       454,
    33.895,       449,
   33.9152,       446,
   33.9354,       409,
   33.9556,       409,
   33.9758,       446,
    33.996,       456,
   34.0163,       438,
   34.0365,       480,
   34.0567,       512,
   34.0769,       589,
   34.0971,       588,
   34.1174,       669,
   34.1376,       747,
   34.1578,       872,
    34.178,      1057,
   34.1982,      1323,
   34.2185,      1675,
   34.2387,      1867,
   34.2589,      1963,
   34.2791,      2196,
   34.2993,      2488,
   34.3195,      2701,
   34.3398,      2769,
     34.36,      2799,
   34.3802,      2713,
   34.4004,      2387,
   34.4206,      2042,
   34.4409,      1776,
   34.4611,      1504,
   34.4813,      1115,
   34.5015,       949,
   34.5217,       762,
    34.542,       657,
   34.5622,       578,
   34.5824,       518,
   34.6026,       491,
   34.6228,       437,
    34.643,       423,
   34.6633,       429,
   34.6835,       414,
   34.7037,       417,
   34.7239,       357,
   34.7441,       352,
   34.7644,       392,
   34.7846,       381,
   34.8048,       352,
    34.825,       355,
   34.8452,       367,
   34.8655,       381,
   34.8857,       412,
   34.9059,       366,
   34.9261,       380,
   34.9463,       396,
   34.9665,       365,
   34.9868,       378,
    35.007,       378,
   35.0272,       374,
   35.0474,       336,
   35.0676,       353,
   35.0879,       335,
   35.1081,       345,
   35.1283,       321,
   35.1485,       354,
   35.1687,       308,
    35.189,       331,
   35.2092,       332,
   35.2294,       322,
   35.2496,       337,
   35.2698,       318,
     35.29,       316,
   35.3103,       316,
   35.3305,       350,
   35.3507,       347,
   35.3709,       340,
   35.3911,       296,
   35.4114,       326,
   35.4316,       313,
   35.4518,       313,
    35.472,       342,
   35.4922,       310,
   35.5125,       285,
   35.5327,       320,
   35.5529,       309,
   35.5731,       349,
   35.5933,       339,
   35.6135,       321,
   35.6338,       326,
    35.654,       324,
   35.6742,       298,
   35.6944,       322,
   35.7146,       306,
   35.7349,       289,
   35.7551,       325,
   35.7753,       293,
   35.7955,       323,
   35.8157,       317,
    35.836,       356,
   35.8562,       314,
   35.8764,       341,
   35.8966,       308,
   35.9168,       302,
    35.937,       311,
   35.9573,       299,
   35.9775,       303,
   35.9977,       328,
   36.0179,       314,
   36.0381,       308,
   36.0584,       312,
   36.0786,       318,
   36.0988,       319,
    36.119,       317,
   36.1392,       337,
   36.1595,       325,
   36.1797,       300,
   36.1999,       339,
   36.2201,       335,
   36.2403,       308,
   36.2605,       337,
   36.2808,       356,
    36.301,       353,
   36.3212,       343,
   36.3414,       376,
   36.3616,       364,
   36.3819,       406,
   36.4021,       417,
   36.4223,       431,
   36.4425,       446,
   36.4627,       537,
    36.483,       597,
   36.5032,       607,
   36.5234,       677,
   36.5436,       751,
   36.5638,       871,
    36.584,       934,
   36.6043,      1093,
   36.6245,      1312,
   36.6447,      1578,
   36.6649,      1782,
   36.6851,      1873,
   36.7054,      1814,
   36.7256,      1689,
   36.7458,      1605,
    36.766,      1423,
   36.7862,      1224,
   36.8065,      1061,
   36.8267,       825,
   36.8469,       776,
   36.8671,       737,
   36.8873,       564,
   36.9075,       537,
   36.9278,       512,
    36.948,       510,
   36.9682,       507,
   36.9884,       542,
   37.0086,       478,
   37.0289,       531,
   37.0491,       568,
   37.0693,       582,
   37.0895,       614,
   37.1097,       667,
     37.13,       719,
   37.1502,       749,
   37.1704,       865,
   37.1906,      1036,
   37.2108,      1137,
    37.231,      1484,
   37.2513,      1651,
   37.2715,      2222,
   37.2917,      2764,
   37.3119,      3596,
   37.3321,      4437,
   37.3524,      5272,
   37.3726,      6594,
   37.3928,      7848,
    37.413,      8751,
   37.4332,      8468,
   37.4535,      6822,
   37.4737,      5750,
   37.4939,      4914,
   37.5141,      4133,
   37.5343,      3058,
   37.5545,      1979,
   37.5748,      1475,
    37.595,      1056,
   37.6152,       853,
   37.6354,       740,
   37.6556,       702,
   37.6759,       703,
   37.6961,       619,
   37.7163,       621,
   37.7365,       614,
   37.7567,       616,
    37.777,       558,
   37.7972,       598,
   37.8174,       576,
   37.8376,       586,
   37.8578,       533,
    37.878,       509,
   37.8983,       547,
   37.9185,       518,
   37.9387,       483,
   37.9589,       455,
   37.9791,       429,
   37.9994,       438,
   38.0196,       398,
   38.0398,       361,
     38.06,       349,
   38.0802,       350,
   38.1005,       342,
   38.1207,       346,
   38.1409,       304,
   38.1611,       374,
   38.1813,       323,
   38.2015,       336,
   38.2218,       340,
    38.242,       302,
   38.2622,       317,
   38.2824,       325,
   38.3026,       319,
   38.3229,       320,
   38.3431,       312,
   38.3633,       354,
   38.3835,       360,
   38.4037,       374,
    38.424,       380,
   38.4442,       375,
   38.4644,       345,
   38.4846,       410,
   38.5048,       382,
    38.525,       418,
   38.5453,       455,
   38.5655,       456,
   38.5857,       444,
   38.6059,       477,
   38.6261,       439,
   38.6464,       458,
   38.6666,       442,
   38.6868,       472,
    38.707,       459,
   38.7272,       404,
   38.7475,       438,
   38.7677,       403,
   38.7879,       447,
   38.8081,       445,
   38.8283,       492,
   38.8485,       513,
   38.8688,       571,
    38.889,       643,
   38.9092,       640,
   38.9294,       786,
   38.9496,       824,
   38.9699,       967,
   38.9901,      1046,
   39.0103,      1202,
   39.0305,      1215,
   39.0507,      1135,
    39.071,      1053,
   39.0912,      1077,
   39.1114,       987,
   39.1316,       914,
   39.1518,       897,
    39.172,       857,
   39.1923,       809,
   39.2125,       858,
   39.2327,       891,
   39.2529,       940,
   39.2731,       949,
   39.2934,      1099,
   39.3136,      1135,
   39.3338,      1205,
    39.354,      1211,
   39.3742,      1123,
   39.3945,      1048,
   39.4147,      1064,
   39.4349,       911,
   39.4551,       832,
   39.4753,       717,
   39.4955,       619,
   39.5158,       564,
    39.536,       497,
   39.5562,       475,
   39.5764,       392,
   39.5966,       393,
   39.6169,       423,
   39.6371,       367,
   39.6573,       366,
   39.6775,       325,
   39.6977,       348,
    39.718,       321,
   39.7382,       320,
   39.7584,       325,
   39.7786,       311,
   39.7988,       276,
    39.819,       287,
   39.8393,       303,
   39.8595,       301,
   39.8797,       305,
   39.8999,       303,
   39.9201,       291,
   39.9404,       294,
   39.9606,       289,
   39.9808,       291,
    40.001,       317,
   40.0212,       294,
   40.0415,       310,
   40.0617,       290,
   40.0819,       257,
   40.1021,       307,
   40.1223,       277,
   40.1425,       291,
   40.1628,       296,
    40.183,       303,
   40.2032,       309,
   40.2234,       297,
   40.2436,       317,
   40.2639,       314,
   40.2841,       302,
   40.3043,       281,
   40.3245,       277,
   40.3447,       333,
    40.365,       306,
   40.3852,       300,
   40.4054,       314,
   40.4256,       324,
   40.4458,       311,
    40.466,       304,
   40.4863,       315,
   40.5065,       326,
   40.5267,       344,
   40.5469,       342,
   40.5671,       358,
   40.5874,       366,
   40.6076,       385,
   40.6278,       472,
    40.648,       437,
   40.6682,       468,
   40.6885,       441,
   40.7087,       455,
   40.7289,       457,
   40.7491,       452,
   40.7693,       456,
   40.7895,       414,
   40.8098,       424,
     40.83,       427,
   40.8502,       406,
   40.8704,       392,
   40.8906,       338,
   40.9109,       318,
   40.9311,       317,
   40.9513,       308,
   40.9715,       305,
   40.9917,       305,
    41.012,       288,
   41.0322,       293,
   41.0524,       285,
   41.0726,       279,
   41.0928,       293,
   41.1131,       278,
   41.1333,       274,
   41.1535,       299,
   41.1737,       305,
   41.1939,       277,
   41.2141,       282,
   41.2344,       313,
   41.2546,       269,
   41.2748,       300,
    41.295,       280,
   41.3152,       288,
   41.3355,       286,
   41.3557,       301,
   41.3759,       301,
   41.3961,       298,
   41.4163,       281,
   41.4366,       303,
   41.4568,       262,
    41.477,       287,
   41.4972,       279,
   41.5174,       289,
   41.5376,       310,
   41.5579,       306,
   41.5781,       326,
   41.5983,       365,
   41.6185,       328,
   41.6387,       363,
    41.659,       389,
   41.6792,       433,
   41.6994,       465,
   41.7196,       538,
   41.7398,       556,
   41.7601,       558,
   41.7803,       544,
   41.8005,       474,
   41.8207,       469,
   41.8409,       422,
   41.8611,       394,
   41.8814,       380,
   41.9016,       375,
   41.9218,       318,
    41.942,       306,
   41.9622,       299,
   41.9825,       286,
   42.0027,       300,
   42.0229,       319,
   42.0431,       304,
   42.0633,       295,
   42.0836,       313,
   42.1038,       325,
    42.124,       299,
   42.1442,       317,
   42.1644,       319,
   42.1846,       317,
   42.2049,       346,
   42.2251,       342,
   42.2453,       360,
   42.2655,       370,
   42.2857,       405,
    42.306,       406,
   42.3262,       466,
   42.3464,       512,
   42.3666,       529,
   42.3868,       606,
   42.4071,       633,
   42.4273,       730,
   42.4475,       756,
   42.4677,       744,
   42.4879,       790,
   42.5081,       872,
   42.5284,       876,
   42.5486,       879,
   42.5688,       863,
    42.589,       885,
   42.6092,       847,
   42.6295,       829,
   42.6497,       743,
   42.6699,       709,
   42.6901,       676,
   42.7103,       615,
   42.7306,       564,
   42.7508,       495,
    42.771,       426,
   42.7912,       399,
   42.8114,       393,
   42.8316,       394,
   42.8519,       368,
   42.8721,       347,
   42.8923,       390,
   42.9125,       343,
   42.9327,       313,
    42.953,       340,
   42.9732,       342,
   42.9934,       330,
   43.0136,       332,
   43.0338,       309,
   43.0541,       325,
   43.0743,       340,
   43.0945,       343,
   43.1147,       368,
   43.1349,       407,
   43.1551,       385,
   43.1754,       385,
   43.1956,       397,
   43.2158,       416,
    43.236,       401,
   43.2562,       352,
   43.2765,       393,
   43.2967,       325,
   43.3169,       327,
   43.3371,       311,
   43.3573,       307,
   43.3776,       271,
   43.3978,       274,
    43.418,       280,
   43.4382,       263,
   43.4584,       277,
   43.4786,       253,
   43.4989,       283,
   43.5191,       287,
   43.5393,       266,
   43.5595,       276,
   43.5797,       288,
      43.6,       268,
   43.6202,       281,
   43.6404,       304,
   43.6606,       299,
   43.6808,       309,
   43.7011,       324,
   43.7213,       307,
   43.7415,       327,
   43.7617,       324,
   43.7819,       361,
   43.8021,       386,
   43.8224,       371,
   43.8426,       391,
   43.8628,       398,
    43.883,       483,
   43.9032,       496,
   43.9235,       488,
   43.9437,       524,
   43.9639,       487,
   43.9841,       458,
   44.0043,       475,
   44.0246,       466,
   44.0448,       442,
    44.065,       473,
   44.0852,       427,
   44.1054,       413,
   44.1256,       376,
   44.1459,       354,
   44.1661,       375,
   44.1863,       347,
   44.2065,       324,
   44.2267,       352,
    44.247,       302,
   44.2672,       311,
   44.2874,       310,
   44.3076,       296,
   44.3278,       282,
   44.3481,       311,
   44.3683,       322,
   44.3885,       319,
   44.4087,       356,
   44.4289,       304,
   44.4491,       379,
   44.4694,       432,
   44.4896,       424,
   44.5098,       497,
     44.53,       549,
   44.5502,       617,
   44.5705,       687,
   44.5907,       723,
   44.6109,       760,
   44.6311,       813,
   44.6513,       874,
   44.6716,       781,
   44.6918,       759,
    44.712,       715,
   44.7322,       683,
   44.7524,       632,
   44.7726,       583,
   44.7929,       503,
   44.8131,       439,
   44.8333,       367,
   44.8535,       388,
   44.8737,       340,
    44.894,       360,
   44.9142,       316,
   44.9344,       338,
   44.9546,       321,
   44.9748,       303,
   44.9951,       333,
   45.0153,       330,
   45.0355,       302,
   45.0557,       336,
   45.0759,       329,
   45.0961,       346,
   45.1164,       413,
   45.1366,       398,
   45.1568,       460,
    45.177,       449,
   45.1972,       525,
   45.2175,       561,
   45.2377,       557,
   45.2579,       606,
   45.2781,       646,
   45.2983,       623,
   45.3186,       611,
   45.3388,       608,
    45.359,       613,
   45.3792,       542,
   45.3994,       580,
   45.4196,       546,
   45.4399,       602,
   45.4601,       559,
   45.4803,       591,
   45.5005,       612,
   45.5207,       620,
    45.541,       521,
   45.5612,       511,
   45.5814,       459,
   45.6016,       420,
   45.6218,       429,
   45.6421,       379,
   45.6623,       356,
   45.6825,       307,
   45.7027,       314,
   45.7229,       286,
   45.7431,       282,
   45.7634,       272,
   45.7836,       297,
   45.8038,       262,
    45.824,       237,
   45.8442,       263,
   45.8645,       235,
   45.8847,       238,
   45.9049,       252,
   45.9251,       249,
   45.9453,       260,
   45.9656,       228,
   45.9858,       232,
    46.006,       266,
   46.0262,       244,
   46.0464,       262,
   46.0666,       256,
   46.0869,       254,
   46.1071,       287,
   46.1273,       258,
   46.1475,       243,
   46.1677,       223,
    46.188,       257,
   46.2082,       230,
   46.2284,       264,
   46.2486,       244,
   46.2688,       245,
   46.2891,       283,
   46.3093,       281,
   46.3295,       281,
   46.3497,       228,
   46.3699,       247,
   46.3901,       237,
   46.4104,       240,
   46.4306,       237,
   46.4508,       270,
    46.471,       244,
   46.4912,       220,
   46.5115,       241,
   46.5317,       224,
   46.5519,       243,
   46.5721,       243,
   46.5923,       225,
   46.6126,       233,
   46.6328,       249,
    46.653,       231,
   46.6732,       196,
   46.6934,       272,
   46.7136,       216,
   46.7339,       217,
   46.7541,       237,
   46.7743,       229,
   46.7945,       224,
   46.8147,       250,
    46.835,       250,
   46.8552,       220,
   46.8754,       251,
   46.8956,       227,
   46.9158,       223,
   46.9361,       209,
   46.9563,       228,
   46.9765,       244,
   46.9967,       259,
   47.0169,       254,
   47.0371,       227,
   47.0574,       214,
   47.0776,       216,
   47.0978,       218,
    47.118,       223,
   47.1382,       216,
   47.1585,       236,
   47.1787,       208,
   47.1989,       258,
   47.2191,       235,
   47.2393,       236,
   47.2596,       227,
   47.2798,       237,
      47.3,       231,
   47.3202,       248,
   47.3404,       253,
   47.3606,       244,
   47.3809,       238,
   47.4011,       230,
   47.4213,       264,
   47.4415,       237,
   47.4617,       236,
    47.482,       232,
   47.5022,       244,
   47.5224,       263,
   47.5426,       244,
   47.5628,       269,
   47.5831,       250,
   47.6033,       243,
   47.6235,       294,
   47.6437,       253,
   47.6639,       256,
   47.6841,       314,
   47.7044,       296,
   47.7246,       281,
   47.7448,       341,
    47.765,       351,
   47.7852,       339,
   47.8055,       404,
   47.8257,       436,
   47.8459,       414,
   47.8661,       487,
   47.8863,       489,
   47.9066,       587,
   47.9268,       572,
    47.947,       599,
   47.9672,       644,
   47.9874,       626,
   48.0076,       576,
   48.0279,       502,
   48.0481,       502,
   48.0683,       464,
   48.0885,       438,
   48.1087,       417,
    48.129,       372,
   48.1492,       338,
   48.1694,       314,
   48.1896,       324,
   48.2098,       298,
   48.2301,       331,
   48.2503,       303,
   48.2705,       326,
   48.2907,       313,
   48.3109,       315,
   48.3311,       318,
   48.3514,       307,
   48.3716,       317,
   48.3918,       320,
    48.412,       335,
   48.4322,       313,
   48.4525,       308,
   48.4727,       365,
   48.4929,       370,
   48.5131,       381,
   48.5333,       429,
   48.5536,       412,
   48.5738,       436,
    48.594,       422,
   48.6142,       403,
   48.6344,       369,
   48.6546,       384,
   48.6749,       345,
   48.6951,       340,
   48.7153,       323,
   48.7355,       312,
   48.7557,       261,
    48.776,       272,
   48.7962,       288,
   48.8164,       258,
   48.8366,       249,
   48.8568,       233,
   48.8771,       227,
   48.8973,       250,
   48.9175,       231,
   48.9377,       199,
   48.9579,       231,
   48.9781,       229,
   48.9984,       215,
   49.0186,       246,
   49.0388,       215,
    49.059,       240,
   49.0792,       263,
   49.0995,       205,
   49.1197,       227,
   49.1399,       209,
   49.1601,       234,
   49.1803,       243,
   49.2006,       211,
   49.2208,       224,
    49.241,       207,
   49.2612,       238,
   49.2814,       203,
   49.3016,       213,
   49.3219,       236,
   49.3421,       230,
   49.3623,       211,
   49.3825,       230,
   49.4027,       207,
    49.423,       213,
   49.4432,       211,
   49.4634,       223,
   49.4836,       241,
   49.5038,       221,
   49.5241,       239,
   49.5443,       225,
   49.5645,       217,
   49.5847,       250,
   49.6049,       267,
   49.6251,       210,
   49.6454,       245,
   49.6656,       259,
   49.6858,       257,
    49.706,       264,
   49.7262,       264,
   49.7465,       263,
   49.7667,       265,
   49.7869,       275,
   49.8071,       296,
   49.8273,       276,
   49.8476,       263,
   49.8678,       259,
    49.888,       281,
   49.9082,       247,
   49.9284,       268,
   49.9486,       231,
   49.9689,       229,
   49.9891,       247,
   50.0093,       232,
   50.0295,       228,
   50.0497,       236,
     50.07,       247,
   50.0902,       229,
   50.1104,       243,
   50.1306,       214,
   50.1508,       220,
   50.1711,       242,
   50.1913,       225,
   50.2115,       240,
   50.2317,       236,
   50.2519,       223,
   50.2721,       234,
   50.2924,       228,
   50.3126,       268,
   50.3328,       219,
    50.353,       241,
   50.3732,       267,
   50.3935,       289,
   50.4137,       281,
   50.4339,       280,
   50.4541,       275,
   50.4743,       280,
   50.4946,       346,
   50.5148,       347,
    50.535,       384,
   50.5552,       412,
   50.5754,       459,
   50.5956,       525,
   50.6159,       532,
   50.6361,       523,
   50.6563,       500,
   50.6765,       486,
   50.6967,       421,
    50.717,       441,
   50.7372,       434,
   50.7574,       401,
   50.7776,       353,
   50.7978,       334,
   50.8181,       310,
   50.8383,       322,
   50.8585,       297,
   50.8787,       320,
   50.8989,       297,
   50.9191,       303,
   50.9394,       327,
   50.9596,       328,
   50.9798,       340,
        51,       353,
   51.0202,       336,
   51.0405,       407,
   51.0607,       415,
   51.0809,       421,
   51.1011,       518,
   51.1213,       531,
   51.1416,       595,
   51.1618,       582,
    51.182,       566,
   51.2022,       618,
   51.2224,       542,
   51.2426,       566,
   51.2629,       532,
   51.2831,       549,
   51.3033,       468,
   51.3235,       495,
   51.3437,       502,
    51.364,       474,
   51.3842,       489,
   51.4044,       466,
   51.4246,       492,
   51.4448,       568,
   51.4651,       535,
   51.4853,       523,
   51.5055,       504,
   51.5257,       490,
   51.5459,       524,
   51.5661,       481,
   51.5864,       458,
   51.6066,       375,
   51.6268,       380,
    51.647,       329,
   51.6672,       365,
   51.6875,       309,
   51.7077,       305,
   51.7279,       259,
   51.7481,       261,
   51.7683,       249,
   51.7886,       263,
   51.8088,       264,
    51.829,       244,
   51.8492,       205,
   51.8694,       240,
   51.8897,       232,
   51.9099,       224,
   51.9301,       231,
   51.9503,       243,
   51.9705,       223,
   51.9907,       219,
    52.011,       265,
   52.0312,       263,
   52.0514,       247,
   52.0716,       251,
   52.0918,       279,
   52.1121,       244,
   52.1323,       279,
   52.1525,       264,
   52.1727,       265,
   52.1929,       290,
   52.2132,       282,
   52.2334,       292,
   52.2536,       291,
   52.2738,       278,
    52.294,       263,
   52.3142,       273,
   52.3345,       241,
   52.3547,       266,
   52.3749,       244,
   52.3951,       264,
   52.4153,       246,
   52.4356,       264,
   52.4558,       245,
    52.476,       252,
   52.4962,       253,
   52.5164,       253,
   52.5367,       251,
   52.5569,       263,
   52.5771,       271,
   52.5973,       269,
   52.6175,       287,
   52.6377,       298,
    52.658,       264,
   52.6782,       272,
   52.6984,       289,
   52.7186,       271,
   52.7388,       260,
   52.7591,       258,
   52.7793,       267,
   52.7995,       241,
   52.8197,       244,
   52.8399,       234,
   52.8602,       224,
   52.8804,       235,
   52.9006,       223,
   52.9208,       231,
    52.941,       210,
   52.9612,       234,
   52.9815,       235,
   53.0017,       219,
   53.0219,       207,
   53.0421,       250,
   53.0623,       244,
   53.0826,       267,
   53.1028,       233,
    53.123,       263,
   53.1432,       251,
   53.1634,       266,
   53.1837,       260,
   53.2039,       277,
   53.2241,       286,
   53.2443,       292,
   53.2645,       308,
   53.2847,       297,
    53.305,       336,
   53.3252,       377,
   53.3454,       371,
   53.3656,       392,
   53.3858,       433,
   53.4061,       468,
   53.4263,       525,
   53.4465,       542,
   53.4667,       613,
   53.4869,       678,
   53.5072,       829,
   53.5274,       965,
   53.5476,      1166,
   53.5678,      1434,
    53.588,      1727,
   53.6082,      2111,
   53.6285,      2479,
   53.6487,      2545,
   53.6689,      2548,
   53.6891,      2488,
   53.7093,      2358,
   53.7296,      2170,
   53.7498,      2124,
     53.77,      1986,
   53.7902,      1801,
   53.8104,      1545,
   53.8307,      1351,
   53.8509,      1202,
   53.8711,      1061,
   53.8913,       863,
   53.9115,       803,
   53.9317,       784,
    53.952,       706,
   53.9722,       698,
   53.9924,       750,
   54.0126,       788,
   54.0328,       834,
   54.0531,       915,
   54.0733,      1011,
   54.0935,      1120,
   54.1137,      1222,
   54.1339,      1266,
   54.1542,      1165,
   54.1744,      1157,
   54.1946,      1068,
   54.2148,       876,
    54.235,       869,
   54.2552,       821,
   54.2755,       701,
   54.2957,       633,
   54.3159,       542,
   54.3361,       490,
   54.3563,       410,
   54.3766,       383,
   54.3968,       352,
    54.417,       325,
   54.4372,       314,
   54.4574,       269,
   54.4777,       298,
   54.4979,       295,
   54.5181,       284,
   54.5383,       256,
   54.5585,       249,
   54.5787,       267,
    54.599,       265,
   54.6192,       268,
   54.6394,       238,
   54.6596,       254,
   54.6798,       242,
   54.7001,       254,
   54.7203,       264,
   54.7405,       249,
   54.7607,       253,
   54.7809,       258,
   54.8012,       248,
   54.8214,       290,
   54.8416,       253,
   54.8618,       258,
    54.882,       267,
   54.9022,       256,
   54.9225,       274,
   54.9427,       288,
   54.9629,       236,
   54.9831,       263,
   55.0033,       258,
   55.0236,       245,
   55.0438,       255,
    55.064,       262,
   55.0842,       237,
   55.1044,       217,
   55.1247,       219,
   55.1449,       205,
   55.1651,       208,
   55.1853,       205,
   55.2055,       196,
   55.2257,       213,
    55.246,       209,
   55.2662,       214,
   55.2864,       215,
   55.3066,       205,
   55.3268,       220,
   55.3471,       214,
   55.3673,       215,
   55.3875,       220,
   55.4077,       213,
   55.4279,       217,
   55.4482,       216,
   55.4684,       236,
   55.4886,       227,
   55.5088,       219,
    55.529,       221,
   55.5492,       212,
   55.5695,       228,
   55.5897,       232,
   55.6099,       209,
   55.6301,       227,
   55.6503,       208,
   55.6706,       220,
   55.6908,       217,
    55.711,       223,
   55.7312,       203,
   55.7514,       230,
   55.7717,       216,
   55.7919,       241,
   55.8121,       209,
   55.8323,       204,
   55.8525,       204,
   55.8727,       218,
    55.893,       206,
   55.9132,       235,
   55.9334,       220,
   55.9536,       231,
   55.9738,       240,
   55.9941,       242,
   56.0143,       223,
   56.0345,       236,
   56.0547,       240,
   56.0749,       232,
   56.0952,       239,
   56.1154,       271,
   56.1356,       247,
   56.1558,       258,
    56.176,       301,
   56.1962,       291,
   56.2165,       283,
   56.2367,       297,
   56.2569,       305,
   56.2771,       314,
   56.2973,       338,
   56.3176,       376,
   56.3378,       416,
    56.358,       482,
   56.3782,       514,
   56.3984,       622,
   56.4187,       653,
   56.4389,       730,
   56.4591,       896,
   56.4793,       963,
   56.4995,      1156,
   56.5197,      1255,
     56.54,      1203,
   56.5602,      1237,
   56.5804,      1172,
   56.6006,      1141,
   56.6208,      1053,
   56.6411,       936,
   56.6613,       978,
   56.6815,       915,
   56.7017,       833,
   56.7219,       714,
   56.7422,       583,
   56.7624,       557,
   56.7826,       497,
   56.8028,       412,
    56.823,       429,
   56.8432,       382,
   56.8635,       422,
   56.8837,       437,
   56.9039,       415,
   56.9241,       435,
   56.9443,       487,
   56.9646,       511,
   56.9848,       559,
    57.005,       630,
   57.0252,       683,
   57.0454,       744,
   57.0657,       825,
   57.0859,       846,
   57.1061,       851,
   57.1263,       880,
   57.1465,       888,
   57.1667,       863,
    57.187,       874,
   57.2072,       885,
   57.2274,       866,
   57.2476,       818,
   57.2678,       749,
   57.2881,       719,
   57.3083,       608,
   57.3285,       562,
   57.3487,       522,
   57.3689,       480,
   57.3892,       467,
   57.4094,       399,
   57.4296,       375,
   57.4498,       348,
     57.47,       350,
   57.4902,       300,
   57.5105,       298,
   57.5307,       308,
   57.5509,       268,
   57.5711,       306,
   57.5913,       296,
   57.6116,       264,
   57.6318,       273,
    57.652,       284,
   57.6722,       263,
   57.6924,       259,
   57.7127,       266,
   57.7329,       259,
   57.7531,       263,
   57.7733,       244,
   57.7935,       242,
   57.8137,       262,
    57.834,       264,
   57.8542,       235,
   57.8744,       226,
   57.8946,       241,
   57.9148,       230,
   57.9351,       226,
   57.9553,       217,
   57.9755,       230,
   57.9957,       245,
   58.0159,       245,
   58.0362,       229,
   58.0564,       211,
   58.0766,       218,
   58.0968,       218,
    58.117,       208,
   58.1372,       214,
   58.1575,       199,
   58.1777,       220,
   58.1979,       187,
   58.2181,       214,
   58.2383,       206,
   58.2586,       203,
   58.2788,       223,
    58.299,       210,
   58.3192,       191,
   58.3394,       204,
   58.3597,       223,
   58.3799,       198,
   58.4001,       213,
   58.4203,       199,
   58.4405,       194,
   58.4607,       204,
    58.481,       217,
   58.5012,       217,
   58.5214,       212,
   58.5416,       215,
   58.5618,       233,
   58.5821,       228,
   58.6023,       194,
   58.6225,       204,
   58.6427,       191,
   58.6629,       245,
   58.6832,       204,
   58.7034,       219,
   58.7236,       202,
   58.7438,       187,
    58.764,       220,
   58.7842,       203,
   58.8045,       227,
   58.8247,       227,
   58.8449,       222,
   58.8651,       247,
   58.8853,       259,
   58.9056,       253,
   58.9258,       223,
    58.946,       240,
   58.9662,       269,
   58.9864,       252,
   59.0067,       227,
   59.0269,       248,
   59.0471,       240,
   59.0673,       246,
   59.0875,       247,
   59.1077,       248,
    59.128,       282,
   59.1482,       305,
   59.1684,       297,
   59.1886,       344,
   59.2088,       365,
   59.2291,       368,
   59.2493,       389,
   59.2695,       481,
   59.2897,       490,
   59.3099,       560,
   59.3302,       611,
   59.3504,       674,
   59.3706,       663,
   59.3908,       649,
    59.411,       656,
   59.4312,       696,
   59.4515,       608,
   59.4717,       690,
   59.4919,       707,
   59.5121,       712,
   59.5323,       693,
   59.5526,       654,
   59.5728,       605,
    59.593,       534,
   59.6132,       474,
   59.6334,       453,
   59.6537,       444,
   59.6739,       441,
   59.6941,       431,
   59.7143,       362,
   59.7345,       336,
   59.7547,       330,
    59.775,       282,
   59.7952,       242,
   59.8154,       279,
   59.8356,       316,
   59.8558,       282,
   59.8761,       272,
   59.8963,       250,
   59.9165,       266,
   59.9367,       273,
   59.9569,       275,
   59.9772,       293,
   59.9974,       296,
   60.0176,       277,
   60.0378,       306,
    60.058,       294,
   60.0782,       260,
   60.0985,       263,
   60.1187,       280,
   60.1389,       252,
   60.1591,       262,
   60.1793,       256,
   60.1996,       238,
   60.2198,       292,
     60.24,       261,
   60.2602,       248,
   60.2804,       254,
   60.3007,       258,
   60.3209,       261,
   60.3411,       263,
   60.3613,       288,
   60.3815,       297,
   60.4017,       302,
    60.422,       317,
   60.4422,       291,
   60.4624,       284,
   60.4826,       319,
   60.5028,       319,
   60.5231,       357,
   60.5433,       346,
   60.5635,       328,
   60.5837,       329,
   60.6039,       365,
   60.6242,       386,
   60.6444,       388,
   60.6646,       382,
   60.6848,       426,
    60.705,       445,
   60.7252,       417,
   60.7455,       457,
   60.7657,       437,
   60.7859,       425,
   60.8061,       406,
   60.8263,       415,
   60.8466,       343,
   60.8668,       365,
    60.887,       359,
   60.9072,       358,
   60.9274,       323,
   60.9477,       271,
   60.9679,       257,
   60.9881,       261,
   61.0083,       256,
   61.0285,       244,
   61.0487,       193,
    61.069,       196,
   61.0892,       223,
   61.1094,       222,
   61.1296,       184,
   61.1498,       205,
   61.1701,       199,
   61.1903,       226,
   61.2105,       204,
   61.2307,       194,
   61.2509,       181,
   61.2712,       212,
   61.2914,       219,
   61.3116,       204,
   61.3318,       212,
    61.352,       207,
   61.3722,       236,
   61.3925,       215,
   61.4127,       219,
   61.4329,       222,
   61.4531,       231,
   61.4733,       229,
   61.4936,       185,
   61.5138,       186,
    61.534,       207,
   61.5542,       175,
   61.5744,       201,
   61.5947,       230,
   61.6149,       185,
   61.6351,       196,
   61.6553,       189,
   61.6755,       196,
   61.6957,       240,
    61.716,       225,
   61.7362,       203,
   61.7564,       200,
   61.7766,       220,
   61.7968,       250,
   61.8171,       268,
   61.8373,       257,
   61.8575,       305,
   61.8777,       321,
   61.8979,       339,
   61.9182,       386,
   61.9384,       410,
   61.9586,       428,
   61.9788,       487,
    61.999,       541,
   62.0192,       578,
   62.0395,       552,
   62.0597,       592,
   62.0799,       512,
   62.1001,       495,
   62.1203,       507,
   62.1406,       436,
   62.1608,       431,
    62.181,       414,
   62.2012,       351,
   62.2214,       350,
   62.2417,       328,
   62.2619,       287,
   62.2821,       286,
   62.3023,       291,
   62.3225,       225,
   62.3427,       247,
    62.363,       210,
   62.3832,       248,
   62.4034,       220,
   62.4236,       249,
   62.4438,       260,
   62.4641,       240,
   62.4843,       251,
   62.5045,       266,
   62.5247,       272,
   62.5449,       304,
   62.5652,       312,
   62.5854,       351,
   62.6056,       374,
   62.6258,       385,
    62.646,       376,
   62.6663,       389,
   62.6865,       413,
   62.7067,       428,
   62.7269,       370,
   62.7471,       409,
   62.7673,       367,
   62.7876,       366,
   62.8078,       343,
    62.828,       336,
   62.8482,       311,
   62.8684,       297,
   62.8887,       251,
   62.9089,       296,
   62.9291,       248,
   62.9493,       225,
   62.9695,       234,
   62.9898,       224,
     63.01,       227,
   63.0302,       165,
   63.0504,       198,
   63.0706,       196,
   63.0908,       183,
   63.1111,       181,
   63.1313,       178,
   63.1515,       191,
   63.1717,       169,
   63.1919,       177,
   63.2122,       207,
   63.2324,       193,
   63.2526,       169,
   63.2728,       175,
    63.293,       175,
   63.3133,       195,
   63.3335,       163,
   63.3537,       187,
   63.3739,       181,
   63.3941,       165,
   63.4143,       194,
   63.4346,       179,
   63.4548,       167,
    63.475,       195,
   63.4952,       176,
   63.5154,       179,
   63.5357,       225,
   63.5559,       216,
   63.5761,       173,
   63.5963,       177,
   63.6165,       193,
   63.6368,       204,
    63.657,       222,
   63.6772,       203,
   63.6974,       202,
   63.7176,       229,
   63.7378,       217,
   63.7581,       275,
   63.7783,       243,
   63.7985,       262,
   63.8187,       274,
   63.8389,       280,
   63.8592,       260,
   63.8794,       253,
   63.8996,       259,
   63.9198,       238,
     63.94,       259,
   63.9603,       225,
   63.9805,       238,
   64.0007,       193,
   64.0209,       215,
   64.0411,       188,
   64.0613,       197,
   64.0816,       185,
   64.1018,       205,
    64.122,       168,
   64.1422,       183,
   64.1624,       192,
   64.1827,       203,
   64.2029,       163,
   64.2231,       181,
   64.2433,       156,
   64.2635,       190,
   64.2838,       167,
    64.304,       175,
   64.3242,       146,
   64.3444,       212,
   64.3646,       170,
   64.3848,       166,
   64.4051,       171,
   64.4253,       174,
   64.4455,       179,
   64.4657,       169,
   64.4859,       204,
   64.5062,       194,
   64.5264,       179,
   64.5466,       162,
   64.5668,       218,
    64.587,       192,
   64.6073,       203,
   64.6275,       197,
   64.6477,       184,
   64.6679,       169,
   64.6881,       185,
   64.7083,       151,
   64.7286,       184,
   64.7488,       178,
    64.769,       178,
   64.7892,       184,
   64.8094,       177,
   64.8297,       169,
   64.8499,       154,
   64.8701,       174,
   64.8903,       185,
   64.9105,       162,
   64.9308,       169,
    64.951,       172,
   64.9712,       159,
   64.9914,       187,
   65.0116,       181,
   65.0318,       158,
   65.0521,       155,
   65.0723,       180,
   65.0925,       179,
   65.1127,       176,
   65.1329,       191,
   65.1532,       165,
   65.1734,       185,
   65.1936,       190,
   65.2138,       194,
    65.234,       177,
   65.2543,       225,
   65.2745,       198,
   65.2947,       202,
   65.3149,       218,
   65.3351,       237,
   65.3553,       239,
   65.3756,       217,
   65.3958,       223,
    65.416,       213,
   65.4362,       239,
   65.4564,       216,
   65.4767,       204,
   65.4969,       207,
   65.5171,       195,
   65.5373,       197,
   65.5575,       198,
   65.5778,       193,
    65.598,       198,
   65.6182,       200,
   65.6384,       201,
   65.6586,       178,
   65.6788,       174,
   65.6991,       192,
   65.7193,       179,
   65.7395,       182,
   65.7597,       185,
   65.7799,       193,
   65.8002,       212,
   65.8204,       190,
   65.8406,       151,
   65.8608,       173,
    65.881,       195,
   65.9013,       161,
   65.9215,       178,
   65.9417,       174,
   65.9619,       178,
   65.9821,       197,
   66.0023,       160,
   66.0226,       196,
   66.0428,       197,
    66.063,       189,
   66.0832,       205,
   66.1034,       210,
   66.1237,       216,
   66.1439,       218,
   66.1641,       212,
   66.1843,       229,
   66.2045,       237,
   66.2248,       222,
    66.245,       222,
   66.2652,       224,
   66.2854,       194,
   66.3056,       219,
   66.3258,       236,
   66.3461,       215,
   66.3663,       228,
   66.3865,       222,
   66.4067,       221,
   66.4269,       199,
   66.4472,       206,
   66.4674,       243,
   66.4876,       205,
   66.5078,       212,
    66.528,       215,
   66.5483,       208,
   66.5685,       252,
   66.5887,       224,
   66.6089,       220,
   66.6291,       213,
   66.6493,       236,
   66.6696,       228,
   66.6898,       249,
     66.71,       254,
   66.7302,       288,
   66.7504,       310,
   66.7707,       309,
   66.7909,       338,
   66.8111,       327,
   66.8313,       420,
   66.8515,       395,
   66.8718,       481,
    66.892,       559,
   66.9122,       588,
   66.9324,       619,
   66.9526,       658,
   66.9728,       728,
   66.9931,       715,
   67.0133,       739,
   67.0335,       666,
   67.0537,       640,
   67.0739,       594,
   67.0942,       562,
   67.1144,       577,
   67.1346,       542,
   67.1548,       546,
    67.175,       562,
   67.1953,       527,
   67.2155,       571,
   67.2357,       581,
   67.2559,       574,
   67.2761,       609,
   67.2963,       583,
   67.3166,       611,
   67.3368,       589,
    67.357,       603,
   67.3772,       582,
   67.3974,       557,
   67.4177,       503,
   67.4379,       494,
   67.4581,       456,
   67.4783,       436,
   67.4985,       412,
   67.5188,       398,
    67.539,       365,
   67.5592,       350,
   67.5794,       301,
   67.5996,       273,
   67.6198,       248,
   67.6401,       228,
   67.6603,       212,
   67.6805,       209,
   67.7007,       172,
   67.7209,       195,
   67.7412,       191,
   67.7614,       170,
   67.7816,       188,
   67.8018,       179,
    67.822,       172,
   67.8423,       170,
   67.8625,       171,
   67.8827,       167,
   67.9029,       168,
   67.9231,       168,
   67.9433,       149,
   67.9636,       149,
   67.9838,       168,
    68.004,       165,
   68.0242,       175,
   68.0444,       176,
   68.0647,       165,
   68.0849,       165,
   68.1051,       174,
   68.1253,       170,
   68.1455,       161,
   68.1658,       177,
    68.186,       183,
   68.2062,       152,
   68.2264,       177,
   68.2466,       178,
   68.2668,       156,
   68.2871,       185,
   68.3073,       199,
   68.3275,       208,
   68.3477,       177,
   68.3679,       185,
   68.3882,       162,
   68.4084,       179,
   68.4286,       176,
   68.4488,       144,
    68.469,       178,
   68.4893,       160,
   68.5095,       163,
   68.5297,       162,
   68.5499,       147,
   68.5701,       158,
   68.5903,       167,
   68.6106,       159,
   68.6308,       150,
    68.651,       177,
   68.6712,       150,
   68.6914,       171,
   68.7117,       166,
   68.7319,       165,
   68.7521,       157,
   68.7723,       161,
   68.7925,       178,
   68.8128,       151,
    68.833,       176,
   68.8532,       181,
   68.8734,       180,
   68.8936,       183,
   68.9138,       164,
   68.9341,       177,
   68.9543,       190,
   68.9745,       202,
   68.9947,       195,
   69.0149,       222,
   69.0352,       233,
   69.0554,       236,
   69.0756,       259,
   69.0958,       268,
    69.116,       260,
   69.1363,       238,
   69.1565,       233,
   69.1767,       222,
   69.1969,       232,
   69.2171,       212,
   69.2373,       194,
   69.2576,       206,
   69.2778,       199,
    69.298,       206,
   69.3182,       211,
   69.3384,       175,
   69.3587,       202,
   69.3789,       201,
   69.3991,       144,
   69.4193,       191,
   69.4395,       159,
   69.4598,       161,
     69.48,       179,
   69.5002,       173,
   69.5204,       163,
   69.5406,       167,
   69.5608,       148,
   69.5811,       146,
   69.6013,       147,
   69.6215,       156,
   69.6417,       167,
   69.6619,       167,
   69.6822,       140,
   69.7024,       157,
   69.7226,       172,
   69.7428,       172,
    69.763,       174,
   69.7833,       179,
   69.8035,       179,
   69.8237,       166,
   69.8439,       137,
   69.8641,       172,
   69.8843,       158,
   69.9046,       148,
   69.9248,       146,
    69.945,       162,
   69.9652,       148,
   69.9854,       168,
   70.0057,       147,
