;RAW4.00
[RawHeader]
Date=11/19/2019
EstimatedTotalTime=1740.72
FurtherDQLReading=0
HardwareIndicator=65519
MeasuredTotalTime=1740.72
MeasurementFlag=1
NumberOfMeasuredRanges=1
NumberOfRanges=1
Time=15:15:51

[VarInfo]
Type=USER
Flags=0
Value=Bruker Service

[VarInfo]
Type=SAMPLEID
Flags=0
Value=Commander Sample ID

[VarInfo]
Type=COMMENT
Flags=0
Value=

[VarInfo]
Type=UTF
Flags=0
Value=

[VarInfo]
Type=CREATOR
Flags=0
Value=BrmlToV4Converter

[VarInfo]
Type=CREATOR_VERSION
Flags=0
Value=7.3.0.0

[HardwareConfiguration]
AbsorptionFactor=9999
ActivateAbsorber=0
Alpha1=1.78897
Alpha2=1.79285
AlphaAverage=1.79026
AlphaRatio=0.5
Analyzer=0
Anode=Co
AntiScatteringSlit=9999
BeamOpticsFlags=0
Beta=1.62079
BetaRelativeIntensity=0
DeactivateAbsorber=0
DetectorSlit=9999
DivergenceSlit=1
GoniometerControl=0
GoniometerDiameter=282
GoniometerModel=256
GoniometerStage=7
Monochromator=0
NearSampleSlit=9999
PrimarySollerSlit=9999
SampleChanger=0
SecondSollerSlit=9999
SynchronousAxis=0
ThinFilmAttachment=9999
WaveUnit=A

[RangeHeader]
ActuallyUsedLambda=1.79026
AdditionalDetectorMask=257
DataRecordLength=4
DelayTime=0
DisplayPlaneNumber=0
EstimatedScanTime=1741
ExtraParametersMask=0
GeneratorCurrent=10
GeneratorVoltage=30
Increment=0.0202188
Increment3=0
NumberOfCompletedData=3216
NumberOfCounts=1
NumberOfDetectors=0
NumberOfDrives=2
NumberOfEncoderDrives=0
NumberOfMeasuredData=3216
NumberOfVaryingParameters=0
RangeStartTime=0
RotationSpeed=1
ScanMode=1
ScanType=Locked Coupled
SimulatedMeasConditions=0
SlitChangerIn=0
SmootingWidth=0
Start=5.00234
Steps=3216
SynchronousRotation=0
Time=82.5

[VarInfo]
Type=PSD_DISCRIM
Flags=0
Value=0.11;0.25

[PSD]
ActualTwoTheta=9999
FirstUsedChannel=0
FixedPSD=0
PSDOpening=5.00414
PSDType=5

[Drive]
DriveFlags=1
DriveName=2Theta
DriveNumber=2
DriveOffset=0
OffsetIndex=0
OscillationAmplitude=0
OscillationSpeed=0
StartPosition=5.00234

[Drive]
DriveFlags=1
DriveName=Theta
DriveNumber=1
DriveOffset=0
OffsetIndex=0
OscillationAmplitude=0
OscillationSpeed=0
StartPosition=2.50117

[Data]
     Angle,       PSD,
   5.00234,      4687,
   5.02256,      4642,
   5.04278,      4552,
     5.063,      4474,
   5.08322,      4260,
   5.10344,      4038,
   5.12365,      3925,
   5.14387,      3919,
   5.16409,      3791,
   5.18431,      3717,
   5.20453,      3611,
   5.22475,      3512,
   5.24497,      3404,
   5.26519,      3378,
    5.2854,      3366,
   5.30562,      3443,
   5.32584,      3273,
   5.34606,      3406,
   5.36628,      3253,
    5.3865,      3242,
   5.40672,      3149,
   5.42694,      3216,
   5.44715,      3181,
   5.46737,      3167,
   5.48759,      3083,
   5.50781,      3157,
   5.52803,      3013,
   5.54825,      3119,
   5.56847,      2982,
   5.58869,      3004,
    5.6089,      2954,
   5.62912,      2913,
   5.64934,      2822,
   5.66956,      2904,
   5.68978,      2894,
      5.71,      2830,
   5.73022,      2709,
   5.75044,      2675,
   5.77065,      2788,
   5.79087,      2674,
   5.81109,      2666,
   5.83131,      2631,
   5.85153,      2711,
   5.87175,      2653,
   5.89197,      2649,
   5.91219,      2441,
    5.9324,      2623,
   5.95262,      2494,
   5.97284,      2499,
   5.99306,      2383,
   6.01328,      2459,
    6.0335,      2439,
   6.05372,      2392,
   6.07394,      2362,
   6.09415,      2326,
   6.11437,      2397,
   6.13459,      2380,
   6.15481,      2279,
   6.17503,      2313,
   6.19525,      2189,
   6.21547,      2265,
   6.23569,      2110,
    6.2559,      2300,
   6.27612,      2082,
   6.29634,      2122,
   6.31656,      2149,
   6.33678,      2150,
     6.357,      2117,
   6.37722,      2189,
   6.39744,      2057,
   6.41765,      2086,
   6.43787,      2010,
   6.45809,      2012,
   6.47831,      1999,
   6.49853,      1978,
   6.51875,      1992,
   6.53897,      1906,
   6.55919,      1890,
    6.5794,      2013,
   6.59962,      1817,
   6.61984,      1878,
   6.64006,      1874,
   6.66028,      1868,
    6.6805,      1875,
   6.70072,      1843,
   6.72094,      1841,
   6.74116,      1836,
   6.76137,      1744,
   6.78159,      1793,
   6.80181,      1703,
   6.82203,      1671,
   6.84225,      1670,
   6.86247,      1630,
   6.88269,      1716,
   6.90291,      1770,
   6.92312,      1612,
   6.94334,      1716,
   6.96356,      1640,
   6.98378,      1644,
     7.004,      1610,
   7.02422,      1688,
   7.04444,      1676,
   7.06466,      1594,
   7.08487,      1614,
   7.10509,      1591,
   7.12531,      1542,
   7.14553,      1500,
   7.16575,      1491,
   7.18597,      1485,
   7.20619,      1471,
   7.22641,      1489,
   7.24662,      1581,
   7.26684,      1440,
   7.28706,      1409,
   7.30728,      1483,
    7.3275,      1499,
   7.34772,      1419,
   7.36794,      1428,
   7.38816,      1446,
   7.40837,      1369,
   7.42859,      1350,
   7.44881,      1356,
   7.46903,      1351,
   7.48925,      1353,
   7.50947,      1357,
   7.52969,      1422,
   7.54991,      1311,
   7.57012,      1360,
   7.59034,      1322,
   7.61056,      1267,
   7.63078,      1269,
     7.651,      1305,
   7.67122,      1343,
   7.69144,      1231,
   7.71166,      1284,
   7.73187,      1181,
   7.75209,      1226,
   7.77231,      1191,
   7.79253,      1187,
   7.81275,      1156,
   7.83297,      1249,
   7.85319,      1198,
   7.87341,      1105,
   7.89362,      1178,
   7.91384,      1164,
   7.93406,      1232,
   7.95428,      1149,
    7.9745,      1126,
   7.99472,      1121,
   8.01494,      1203,
   8.03516,      1135,
   8.05537,      1081,
   8.07559,      1118,
   8.09581,      1104,
   8.11603,      1044,
   8.13625,      1142,
   8.15647,      1050,
   8.17669,      1073,
   8.19691,      1099,
   8.21712,      1074,
   8.23734,      1062,
   8.25756,      1042,
   8.27778,      1026,
     8.298,      1024,
   8.31822,      1046,
   8.33844,      1011,
   8.35866,       958,
   8.37887,      1001,
   8.39909,      1035,
   8.41931,       957,
   8.43953,       938,
   8.45975,       969,
   8.47997,       961,
   8.50019,       984,
   8.52041,       974,
   8.54062,       982,
   8.56084,       930,
   8.58106,       968,
   8.60128,       956,
    8.6215,       951,
   8.64172,       911,
   8.66194,       947,
   8.68216,       887,
   8.70237,       888,
   8.72259,       865,
   8.74281,       888,
   8.76303,       853,
   8.78325,       962,
   8.80347,       884,
   8.82369,       933,
   8.84391,       907,
   8.86413,       899,
   8.88434,       955,
   8.90456,       863,
   8.92478,       848,
     8.945,       835,
   8.96522,       877,
   8.98544,       852,
   9.00566,       799,
   9.02588,       816,
   9.04609,       862,
   9.06631,       861,
   9.08653,       862,
   9.10675,       778,
   9.12697,       787,
   9.14719,       841,
   9.16741,       848,
   9.18763,       817,
   9.20784,       816,
   9.22806,       793,
   9.24828,       768,
    9.2685,       787,
   9.28872,       807,
   9.30894,       812,
   9.32916,       819,
   9.34938,       812,
   9.36959,       765,
   9.38981,       705,
   9.41003,       740,
   9.43025,       705,
   9.45047,       779,
   9.47069,       726,
   9.49091,       793,
   9.51113,       741,
   9.53134,       718,
   9.55156,       746,
   9.57178,       755,
     9.592,       764,
   9.61222,       764,
   9.63244,       711,
   9.65266,       778,
   9.67288,       767,
   9.69309,       698,
   9.71331,       730,
   9.73353,       713,
   9.75375,       717,
   9.77397,       711,
   9.79419,       710,
   9.81441,       733,
   9.83463,       732,
   9.85484,       718,
   9.87506,       715,
   9.89528,       784,
    9.9155,       682,
   9.93572,       748,
   9.95594,       723,
   9.97616,       744,
   9.99638,       732,
   10.0166,       688,
   10.0368,       681,
    10.057,       766,
   10.0773,       755,
   10.0975,       703,
   10.1177,       690,
   10.1379,       728,
   10.1581,       668,
   10.1783,       723,
   10.1986,       723,
   10.2188,       733,
    10.239,       688,
   10.2592,       731,
   10.2794,       688,
   10.2997,       730,
   10.3199,       687,
   10.3401,       701,
   10.3603,       657,
   10.3805,       662,
   10.4008,       743,
    10.421,       702,
   10.4412,       727,
   10.4614,       747,
   10.4816,       674,
   10.5018,       694,
   10.5221,       723,
   10.5423,       660,
   10.5625,       704,
   10.5827,       717,
   10.6029,       688,
   10.6232,       652,
   10.6434,       643,
   10.6636,       652,
   10.6838,       683,
    10.704,       696,
   10.7243,       685,
   10.7445,       641,
   10.7647,       722,
   10.7849,       708,
   10.8051,       689,
   10.8253,       646,
   10.8456,       658,
   10.8658,       611,
    10.886,       639,
   10.9062,       687,
   10.9264,       669,
   10.9467,       661,
   10.9669,       684,
   10.9871,       635,
   11.0073,       671,
   11.0275,       667,
   11.0478,       604,
    11.068,       647,
   11.0882,       688,
   11.1084,       674,
   11.1286,       691,
   11.1488,       643,
   11.1691,       635,
   11.1893,       626,
   11.2095,       656,
   11.2297,       632,
   11.2499,       663,
   11.2702,       691,
   11.2904,       634,
   11.3106,       660,
   11.3308,       656,
    11.351,       639,
   11.3713,       613,
   11.3915,       636,
   11.4117,       658,
   11.4319,       618,
   11.4521,       641,
   11.4723,       647,
   11.4926,       591,
   11.5128,       626,
    11.533,       637,
   11.5532,       625,
   11.5734,       655,
   11.5937,       581,
   11.6139,       616,
   11.6341,       598,
   11.6543,       621,
   11.6745,       605,
   11.6948,       612,
    11.715,       637,
   11.7352,       640,
   11.7554,       628,
   11.7756,       610,
   11.7958,       664,
   11.8161,       569,
   11.8363,       660,
   11.8565,       643,
   11.8767,       660,
   11.8969,       611,
   11.9172,       624,
   11.9374,       611,
   11.9576,       655,
   11.9778,       602,
    11.998,       629,
   12.0183,       641,
   12.0385,       588,
   12.0587,       606,
   12.0789,       588,
   12.0991,       603,
   12.1193,       572,
   12.1396,       613,
   12.1598,       593,
     12.18,       622,
   12.2002,       603,
   12.2204,       591,
   12.2407,       576,
   12.2609,       600,
   12.2811,       596,
   12.3013,       628,
   12.3215,       602,
   12.3418,       613,
    12.362,       632,
   12.3822,       581,
   12.4024,       594,
   12.4226,       658,
   12.4428,       631,
   12.4631,       597,
   12.4833,       562,
   12.5035,       585,
   12.5237,       553,
   12.5439,       595,
   12.5642,       613,
   12.5844,       605,
   12.6046,       598,
   12.6248,       612,
    12.645,       549,
   12.6653,       541,
   12.6855,       559,
   12.7057,       588,
   12.7259,       586,
   12.7461,       563,
   12.7663,       585,
   12.7866,       580,
   12.8068,       611,
    12.827,       629,
   12.8472,       570,
   12.8674,       610,
   12.8877,       573,
   12.9079,       580,
   12.9281,       621,
   12.9483,       572,
   12.9685,       545,
   12.9888,       617,
    13.009,       594,
   13.0292,       629,
   13.0494,       580,
   13.0696,       561,
   13.0898,       556,
   13.1101,       568,
   13.1303,       555,
   13.1505,       654,
   13.1707,       628,
   13.1909,       628,
   13.2112,       642,
   13.2314,       573,
   13.2516,       567,
   13.2718,       585,
    13.292,       621,
   13.3123,       621,
   13.3325,       609,
   13.3527,       609,
   13.3729,       632,
   13.3931,       643,
   13.4133,       622,
   13.4336,       665,
   13.4538,       637,
    13.474,       618,
   13.4942,       689,
   13.5144,       776,
   13.5347,       820,
   13.5549,       842,
   13.5751,       982,
   13.5953,      1034,
   13.6155,      1144,
   13.6358,      1411,
    13.656,      1514,
   13.6762,      1839,
   13.6964,      1922,
   13.7166,      1620,
   13.7368,      1238,
   13.7571,       991,
   13.7773,       757,
   13.7975,       667,
   13.8177,       612,
   13.8379,       648,
   13.8582,       618,
   13.8784,       579,
   13.8986,       652,
   13.9188,       565,
    13.939,       564,
   13.9593,       587,
   13.9795,       616,
   13.9997,       611,
   14.0199,       563,
   14.0401,       607,
   14.0603,       570,
   14.0806,       604,
   14.1008,       546,
    14.121,       569,
   14.1412,       578,
   14.1614,       574,
   14.1817,       569,
   14.2019,       573,
   14.2221,       575,
   14.2423,       586,
   14.2625,       589,
   14.2828,       567,
    14.303,       520,
   14.3232,       552,
   14.3434,       611,
   14.3636,       602,
   14.3838,       593,
   14.4041,       565,
   14.4243,       568,
   14.4445,       608,
   14.4647,       541,
   14.4849,       584,
   14.5052,       529,
   14.5254,       556,
   14.5456,       555,
   14.5658,       554,
    14.586,       607,
   14.6063,       513,
   14.6265,       541,
   14.6467,       537,
   14.6669,       522,
   14.6871,       521,
   14.7073,       563,
   14.7276,       555,
   14.7478,       551,
    14.768,       537,
   14.7882,       519,
   14.8084,       547,
   14.8287,       534,
   14.8489,       528,
   14.8691,       522,
   14.8893,       518,
   14.9095,       531,
   14.9298,       515,
     14.95,       546,
   14.9702,       502,
   14.9904,       522,
   15.0106,       526,
   15.0308,       514,
   15.0511,       488,
   15.0713,       506,
   15.0915,       524,
   15.1117,       525,
   15.1319,       526,
   15.1522,       538,
   15.1724,       522,
   15.1926,       509,
   15.2128,       477,
    15.233,       554,
   15.2533,       535,
   15.2735,       526,
   15.2937,       500,
   15.3139,       487,
   15.3341,       510,
   15.3543,       534,
   15.3746,       535,
   15.3948,       540,
    15.415,       543,
   15.4352,       481,
   15.4554,       501,
   15.4757,       505,
   15.4959,       497,
   15.5161,       520,
   15.5363,       488,
   15.5565,       516,
   15.5768,       552,
    15.597,       534,
   15.6172,       518,
   15.6374,       541,
   15.6576,       501,
   15.6778,       505,
   15.6981,       531,
   15.7183,       456,
   15.7385,       526,
   15.7587,       509,
   15.7789,       495,
   15.7992,       510,
   15.8194,       483,
   15.8396,       507,
   15.8598,       476,
     15.88,       526,
   15.9003,       521,
   15.9205,       476,
   15.9407,       505,
   15.9609,       528,
   15.9811,       469,
   16.0013,       508,
   16.0216,       516,
   16.0418,       522,
    16.062,       499,
   16.0822,       504,
   16.1024,       512,
   16.1227,       516,
   16.1429,       497,
   16.1631,       457,
   16.1833,       465,
   16.2035,       476,
   16.2238,       508,
    16.244,       504,
   16.2642,       500,
   16.2844,       456,
   16.3046,       529,
   16.3248,       515,
   16.3451,       486,
   16.3653,       436,
   16.3855,       478,
   16.4057,       458,
   16.4259,       474,
   16.4462,       492,
   16.4664,       475,
   16.4866,       492,
   16.5068,       503,
    16.527,       467,
   16.5473,       473,
   16.5675,       506,
   16.5877,       488,
   16.6079,       488,
   16.6281,       503,
   16.6483,       569,
   16.6686,       503,
   16.6888,       510,
    16.709,       455,
   16.7292,       521,
   16.7494,       532,
   16.7697,       592,
   16.7899,       633,
   16.8101,       653,
   16.8303,       623,
   16.8505,       546,
   16.8708,       535,
    16.891,       491,
   16.9112,       509,
   16.9314,       528,
   16.9516,       462,
   16.9718,       460,
   16.9921,       498,
   17.0123,       463,
   17.0325,       482,
   17.0527,       502,
   17.0729,       497,
   17.0932,       495,
   17.1134,       468,
   17.1336,       446,
   17.1538,       430,
    17.174,       462,
   17.1943,       467,
   17.2145,       468,
   17.2347,       469,
   17.2549,       477,
   17.2751,       494,
   17.2953,       468,
   17.3156,       477,
   17.3358,       472,
    17.356,       442,
   17.3762,       465,
   17.3964,       455,
   17.4167,       447,
   17.4369,       467,
   17.4571,       469,
   17.4773,       477,
   17.4975,       456,
   17.5178,       448,
    17.538,       435,
   17.5582,       450,
   17.5784,       466,
   17.5986,       444,
   17.6188,       470,
   17.6391,       427,
   17.6593,       447,
   17.6795,       447,
   17.6997,       427,
   17.7199,       437,
   17.7402,       467,
   17.7604,       461,
   17.7806,       459,
   17.8008,       453,
    17.821,       472,
   17.8413,       449,
   17.8615,       478,
   17.8817,       429,
   17.9019,       411,
   17.9221,       467,
   17.9423,       469,
   17.9626,       465,
   17.9828,       481,
    18.003,       441,
   18.0232,       442,
   18.0434,       443,
   18.0637,       475,
   18.0839,       444,
   18.1041,       451,
   18.1243,       450,
   18.1445,       462,
   18.1648,       399,
    18.185,       413,
   18.2052,       434,
   18.2254,       442,
   18.2456,       431,
   18.2658,       458,
   18.2861,       488,
   18.3063,       427,
   18.3265,       428,
   18.3467,       464,
   18.3669,       440,
   18.3872,       459,
   18.4074,       459,
   18.4276,       462,
   18.4478,       430,
    18.468,       404,
   18.4883,       431,
   18.5085,       438,
   18.5287,       464,
   18.5489,       427,
   18.5691,       465,
   18.5893,       420,
   18.6096,       450,
   18.6298,       470,
     18.65,       437,
   18.6702,       443,
   18.6904,       454,
   18.7107,       434,
   18.7309,       496,
   18.7511,       455,
   18.7713,       453,
   18.7915,       440,
   18.8118,       410,
    18.832,       452,
   18.8522,       440,
   18.8724,       443,
   18.8926,       408,
   18.9128,       475,
   18.9331,       425,
   18.9533,       481,
   18.9735,       475,
   18.9937,       437,
   19.0139,       422,
   19.0342,       451,
   19.0544,       429,
   19.0746,       418,
   19.0948,       432,
    19.115,       436,
   19.1353,       452,
   19.1555,       441,
   19.1757,       447,
   19.1959,       447,
   19.2161,       432,
   19.2363,       416,
   19.2566,       419,
   19.2768,       484,
    19.297,       483,
   19.3172,       456,
   19.3374,       393,
   19.3577,       445,
   19.3779,       441,
   19.3981,       435,
   19.4183,       442,
   19.4385,       446,
   19.4588,       457,
    19.479,       393,
   19.4992,       427,
   19.5194,       422,
   19.5396,       458,
   19.5599,       393,
   19.5801,       427,
   19.6003,       447,
   19.6205,       419,
   19.6407,       445,
   19.6609,       449,
   19.6812,       387,
   19.7014,       397,
   19.7216,       473,
   19.7418,       471,
    19.762,       443,
   19.7823,       424,
   19.8025,       423,
   19.8227,       427,
   19.8429,       433,
   19.8631,       456,
   19.8834,       428,
   19.9036,       455,
   19.9238,       392,
    19.944,       419,
   19.9642,       429,
   19.9844,       435,
   20.0047,       412,
   20.0249,       397,
   20.0451,       449,
   20.0653,       428,
   20.0855,       430,
   20.1058,       422,
    20.126,       410,
   20.1462,       417,
   20.1664,       413,
   20.1866,       399,
   20.2069,       417,
   20.2271,       369,
   20.2473,       401,
   20.2675,       422,
   20.2877,       443,
   20.3079,       404,
   20.3282,       409,
   20.3484,       403,
   20.3686,       435,
   20.3888,       450,
    20.409,       400,
   20.4293,       416,
   20.4495,       417,
   20.4697,       427,
   20.4899,       415,
   20.5101,       423,
   20.5304,       405,
   20.5506,       440,
   20.5708,       429,
    20.591,       405,
   20.6112,       421,
   20.6314,       420,
   20.6517,       419,
   20.6719,       434,
   20.6921,       448,
   20.7123,       430,
   20.7325,       451,
   20.7528,       418,
    20.773,       407,
   20.7932,       425,
   20.8134,       444,
   20.8336,       421,
   20.8539,       420,
   20.8741,       398,
   20.8943,       392,
   20.9145,       488,
   20.9347,       449,
   20.9549,       432,
   20.9752,       400,
   20.9954,       380,
   21.0156,       444,
   21.0358,       446,
    21.056,       431,
   21.0763,       417,
   21.0965,       428,
   21.1167,       430,
   21.1369,       394,
   21.1571,       413,
   21.1774,       439,
   21.1976,       430,
   21.2178,       434,
    21.238,       409,
   21.2582,       423,
   21.2784,       399,
   21.2987,       451,
   21.3189,       435,
   21.3391,       431,
   21.3593,       452,
   21.3795,       459,
   21.3998,       413,
     21.42,       413,
   21.4402,       485,
   21.4604,       434,
   21.4806,       392,
   21.5009,       418,
   21.5211,       447,
   21.5413,       406,
   21.5615,       428,
   21.5817,       452,
   21.6019,       435,
   21.6222,       397,
   21.6424,       421,
   21.6626,       411,
   21.6828,       391,
    21.703,       445,
   21.7233,       420,
   21.7435,       422,
   21.7637,       438,
   21.7839,       425,
   21.8041,       437,
   21.8244,       417,
   21.8446,       437,
   21.8648,       436,
    21.885,       443,
   21.9052,       439,
   21.9254,       415,
   21.9457,       458,
   21.9659,       453,
   21.9861,       422,
   22.0063,       421,
   22.0265,       416,
   22.0468,       387,
    22.067,       402,
   22.0872,       403,
   22.1074,       457,
   22.1276,       388,
   22.1479,       422,
   22.1681,       406,
   22.1883,       426,
   22.2085,       450,
   22.2287,       450,
   22.2489,       440,
   22.2692,       425,
   22.2894,       409,
   22.3096,       415,
   22.3298,       409,
     22.35,       424,
   22.3703,       399,
   22.3905,       456,
   22.4107,       459,
   22.4309,       459,
   22.4511,       409,
   22.4714,       406,
   22.4916,       438,
   22.5118,       459,
    22.532,       371,
   22.5522,       432,
   22.5724,       429,
   22.5927,       464,
   22.6129,       402,
   22.6331,       434,
   22.6533,       441,
   22.6735,       431,
   22.6938,       448,
    22.714,       437,
   22.7342,       388,
   22.7544,       471,
   22.7746,       412,
   22.7949,       406,
   22.8151,       461,
   22.8353,       439,
   22.8555,       465,
   22.8757,       470,
   22.8959,       449,
   22.9162,       483,
   22.9364,       425,
   22.9566,       442,
   22.9768,       468,
    22.997,       496,
   23.0173,       451,
   23.0375,       471,
   23.0577,       508,
   23.0779,       465,
   23.0981,       484,
   23.1184,       471,
   23.1386,       429,
   23.1588,       452,
    23.179,       513,
   23.1992,       438,
   23.2194,       438,
   23.2397,       470,
   23.2599,       485,
   23.2801,       460,
   23.3003,       448,
   23.3205,       483,
   23.3408,       459,
    23.361,       489,
   23.3812,       500,
   23.4014,       476,
   23.4216,       436,
   23.4419,       463,
   23.4621,       491,
   23.4823,       540,
   23.5025,       493,
   23.5227,       477,
   23.5429,       508,
   23.5632,       488,
   23.5834,       463,
   23.6036,       474,
   23.6238,       463,
    23.644,       456,
   23.6643,       460,
   23.6845,       450,
   23.7047,       414,
   23.7249,       384,
   23.7451,       406,
   23.7654,       477,
   23.7856,       484,
   23.8058,       483,
    23.826,       480,
   23.8462,       446,
   23.8664,       424,
   23.8867,       473,
   23.9069,       480,
   23.9271,       457,
   23.9473,       421,
   23.9675,       467,
   23.9878,       444,
    24.008,       470,
   24.0282,       466,
   24.0484,       472,
   24.0686,       479,
   24.0889,       478,
   24.1091,       478,
   24.1293,       455,
   24.1495,       566,
   24.1697,       564,
   24.1899,       600,
   24.2102,       627,
   24.2304,       672,
   24.2506,       636,
   24.2708,       716,
    24.291,       648,
   24.3113,       616,
   24.3315,       591,
   24.3517,       590,
   24.3719,       488,
   24.3921,       506,
   24.4124,       496,
   24.4326,       460,
   24.4528,       503,
    24.473,       468,
   24.4932,       502,
   24.5134,       442,
   24.5337,       433,
   24.5539,       464,
   24.5741,       470,
   24.5943,       524,
   24.6145,       507,
   24.6348,       526,
    24.655,       465,
   24.6752,       503,
   24.6954,       501,
   24.7156,       441,
   24.7359,       459,
   24.7561,       440,
   24.7763,       430,
   24.7965,       436,
   24.8167,       424,
   24.8369,       399,
   24.8572,       413,
   24.8774,       474,
   24.8976,       470,
   24.9178,       453,
    24.938,       369,
   24.9583,       390,
   24.9785,       387,
   24.9987,       438,
   25.0189,       391,
   25.0391,       444,
   25.0594,       419,
   25.0796,       437,
   25.0998,       426,
     25.12,       408,
   25.1402,       448,
   25.1604,       419,
   25.1807,       454,
   25.2009,       449,
   25.2211,       430,
   25.2413,       406,
   25.2615,       419,
   25.2818,       464,
    25.302,       394,
   25.3222,       397,
   25.3424,       404,
   25.3626,       466,
   25.3829,       421,
   25.4031,       416,
   25.4233,       417,
   25.4435,       416,
   25.4637,       402,
   25.4839,       434,
   25.5042,       421,
   25.5244,       388,
   25.5446,       398,
   25.5648,       398,
    25.585,       419,
   25.6053,       407,
   25.6255,       398,
   25.6457,       365,
   25.6659,       387,
   25.6861,       383,
   25.7064,       389,
   25.7266,       400,
   25.7468,       435,
    25.767,       445,
   25.7872,       373,
   25.8074,       430,
   25.8277,       383,
   25.8479,       384,
   25.8681,       408,
   25.8883,       414,
   25.9085,       442,
   25.9288,       425,
    25.949,       421,
   25.9692,       419,
   25.9894,       390,
   26.0096,       367,
   26.0299,       406,
   26.0501,       447,
   26.0703,       433,
   26.0905,       416,
   26.1107,       414,
   26.1309,       434,
   26.1512,       420,
   26.1714,       400,
   26.1916,       417,
   26.2118,       417,
    26.232,       379,
   26.2523,       380,
   26.2725,       405,
   26.2927,       398,
   26.3129,       426,
   26.3331,       342,
   26.3534,       381,
   26.3736,       417,
   26.3938,       380,
    26.414,       351,
   26.4342,       373,
   26.4544,       390,
   26.4747,       409,
   26.4949,       423,
   26.5151,       371,
   26.5353,       393,
   26.5555,       381,
   26.5758,       422,
    26.596,       431,
   26.6162,       434,
   26.6364,       434,
   26.6566,       418,
   26.6769,       401,
   26.6971,       439,
   26.7173,       402,
   26.7375,       414,
   26.7577,       406,
   26.7779,       448,
   26.7982,       383,
   26.8184,       409,
   26.8386,       398,
   26.8588,       469,
    26.879,       450,
   26.8993,       426,
   26.9195,       439,
   26.9397,       454,
   26.9599,       484,
   26.9801,       518,
   27.0004,       520,
   27.0206,       509,
   27.0408,       550,
    27.061,       533,
   27.0812,       523,
   27.1014,       480,
   27.1217,       437,
   27.1419,       430,
   27.1621,       466,
   27.1823,       455,
   27.2025,       520,
   27.2228,       476,
    27.243,       474,
   27.2632,       491,
   27.2834,       514,
   27.3036,       537,
   27.3239,       603,
   27.3441,       663,
   27.3643,       796,
   27.3845,       707,
   27.4047,       701,
   27.4249,       653,
   27.4452,       576,
   27.4654,       497,
   27.4856,       483,
   27.5058,       465,
    27.526,       492,
   27.5463,       467,
   27.5665,       489,
   27.5867,       517,
   27.6069,       509,
   27.6271,       552,
   27.6474,       575,
   27.6676,       550,
   27.6878,       513,
    27.708,       588,
   27.7282,       591,
   27.7484,       608,
   27.7687,       560,
   27.7889,       540,
   27.8091,       582,
   27.8293,       561,
   27.8495,       569,
   27.8698,       597,
     27.89,       585,
   27.9102,       555,
   27.9304,       505,
   27.9506,       554,
   27.9709,       544,
   27.9911,       523,
   28.0113,       490,
   28.0315,       497,
   28.0517,       481,
   28.0719,       454,
   28.0922,       489,
   28.1124,       421,
   28.1326,       460,
   28.1528,       463,
    28.173,       421,
   28.1933,       407,
   28.2135,       452,
   28.2337,       434,
   28.2539,       407,
   28.2741,       420,
   28.2944,       415,
   28.3146,       418,
   28.3348,       411,
    28.355,       415,
   28.3752,       367,
   28.3954,       417,
   28.4157,       378,
   28.4359,       416,
   28.4561,       427,
   28.4763,       390,
   28.4965,       420,
   28.5168,       416,
    28.537,       402,
   28.5572,       404,
   28.5774,       403,
   28.5976,       420,
   28.6179,       378,
   28.6381,       408,
   28.6583,       423,
   28.6785,       418,
   28.6987,       408,
   28.7189,       441,
   28.7392,       402,
   28.7594,       395,
   28.7796,       439,
   28.7998,       399,
     28.82,       398,
   28.8403,       412,
   28.8605,       418,
   28.8807,       416,
   28.9009,       397,
   28.9211,       436,
   28.9414,       380,
   28.9616,       417,
   28.9818,       395,
    29.002,       415,
   29.0222,       385,
   29.0424,       362,
   29.0627,       397,
   29.0829,       408,
   29.1031,       413,
   29.1233,       377,
   29.1435,       405,
   29.1638,       378,
    29.184,       391,
   29.2042,       389,
   29.2244,       396,
   29.2446,       383,
   29.2649,       394,
   29.2851,       391,
   29.3053,       414,
   29.3255,       390,
   29.3457,       397,
   29.3659,       383,
   29.3862,       370,
   29.4064,       389,
   29.4266,       388,
   29.4468,       422,
    29.467,       406,
   29.4873,       399,
   29.5075,       398,
   29.5277,       402,
   29.5479,       401,
   29.5681,       398,
   29.5884,       414,
   29.6086,       400,
   29.6288,       339,
    29.649,       417,
   29.6692,       394,
   29.6894,       399,
   29.7097,       398,
   29.7299,       389,
   29.7501,       387,
   29.7703,       409,
   29.7905,       414,
   29.8108,       408,
    29.831,       397,
   29.8512,       386,
   29.8714,       397,
   29.8916,       424,
   29.9119,       400,
   29.9321,       424,
   29.9523,       413,
   29.9725,       413,
   29.9927,       392,
   30.0129,       419,
   30.0332,       410,
   30.0534,       444,
   30.0736,       414,
   30.0938,       441,
    30.114,       429,
   30.1343,       388,
   30.1545,       388,
   30.1747,       412,
   30.1949,       430,
   30.2151,       456,
   30.2354,       400,
   30.2556,       439,
   30.2758,       435,
    30.296,       477,
   30.3162,       465,
   30.3365,       476,
   30.3567,       488,
   30.3769,       549,
   30.3971,       526,
   30.4173,       518,
   30.4375,       593,
   30.4578,       586,
    30.478,       637,
   30.4982,       710,
   30.5184,       779,
   30.5386,       945,
   30.5589,      1258,
   30.5791,      1797,
   30.5993,      2499,
   30.6195,      3409,
   30.6397,      4409,
     30.66,      4655,
   30.6802,      4038,
   30.7004,      3518,
   30.7206,      2979,
   30.7408,      2244,
    30.761,      1530,
   30.7813,      1060,
   30.8015,       862,
   30.8217,       768,
   30.8419,       628,
   30.8621,       595,
   30.8824,       600,
   30.9026,       557,
   30.9228,       576,
    30.943,       478,
   30.9632,       543,
   30.9835,       543,
   31.0037,       525,
   31.0239,       495,
   31.0441,       482,
   31.0643,       474,
   31.0845,       505,
   31.1048,       437,
    31.125,       511,
   31.1452,       571,
   31.1654,       593,
   31.1856,       544,
   31.2059,       578,
   31.2261,       541,
   31.2463,       530,
   31.2665,       476,
   31.2867,       432,
    31.307,       473,
   31.3272,       435,
   31.3474,       456,
   31.3676,       456,
   31.3878,       428,
    31.408,       487,
   31.4283,       428,
   31.4485,       450,
   31.4687,       464,
   31.4889,       484,
   31.5091,       474,
   31.5294,       495,
   31.5496,       489,
   31.5698,       540,
     31.59,       489,
   31.6102,       496,
   31.6305,       512,
   31.6507,       564,
   31.6709,       622,
   31.6911,       682,
   31.7113,       827,
   31.7315,       952,
   31.7518,      1170,
    31.772,      1682,
   31.7922,      2095,
   31.8124,      2643,
   31.8326,      2715,
   31.8529,      2518,
   31.8731,      2126,
   31.8933,      1769,
   31.9135,      1542,
   31.9337,      1132,
    31.954,       924,
   31.9742,       832,
   31.9944,       709,
   32.0146,       723,
   32.0348,       715,
    32.055,       697,
   32.0753,       602,
   32.0955,       608,
   32.1157,       550,
   32.1359,       528,
   32.1561,       533,
   32.1764,       517,
   32.1966,       472,
   32.2168,       470,
    32.237,       467,
   32.2572,       450,
   32.2775,       442,
   32.2977,       406,
   32.3179,       407,
   32.3381,       418,
   32.3583,       437,
   32.3785,       395,
   32.3988,       429,
    32.419,       442,
   32.4392,       440,
   32.4594,       462,
   32.4796,       450,
   32.4999,       439,
   32.5201,       415,
   32.5403,       448,
   32.5605,       425,
   32.5807,       437,
    32.601,       400,
   32.6212,       385,
   32.6414,       377,
   32.6616,       406,
   32.6818,       404,
    32.702,       395,
   32.7223,       401,
   32.7425,       429,
   32.7627,       358,
   32.7829,       363,
   32.8031,       367,
   32.8234,       381,
   32.8436,       403,
   32.8638,       407,
    32.884,       378,
   32.9042,       414,
   32.9245,       354,
   32.9447,       402,
   32.9649,       366,
   32.9851,       357,
   33.0053,       359,
   33.0255,       419,
   33.0458,       360,
    33.066,       365,
   33.0862,       384,
   33.1064,       363,
   33.1266,       361,
   33.1469,       378,
   33.1671,       376,
   33.1873,       395,
   33.2075,       312,
   33.2277,       371,
    33.248,       342,
   33.2682,       378,
   33.2884,       388,
   33.3086,       376,
   33.3288,       415,
    33.349,       420,
   33.3693,       371,
   33.3895,       376,
   33.4097,       392,
   33.4299,       387,
   33.4501,       385,
   33.4704,       388,
   33.4906,       389,
   33.5108,       387,
    33.531,       391,
   33.5512,       352,
   33.5715,       382,
   33.5917,       395,
   33.6119,       375,
   33.6321,       386,
   33.6523,       365,
   33.6725,       367,
   33.6928,       379,
    33.713,       389,
   33.7332,       366,
   33.7534,       389,
   33.7736,       395,
   33.7939,       424,
   33.8141,       431,
   33.8343,       387,
   33.8545,       456,
   33.8747,       409,
    33.895,       472,
   33.9152,       474,
   33.9354,       430,
   33.9556,       468,
   33.9758,       467,
    33.996,       512,
   34.0163,       535,
   34.0365,       556,
   34.0567,       631,
   34.0769,       634,
   34.0971,       612,
   34.1174,       559,
   34.1376,       543,
   34.1578,       557,
    34.178,       548,
   34.1982,       467,
   34.2185,       473,
   34.2387,       451,
   34.2589,       441,
   34.2791,       496,
   34.2993,       451,
   34.3195,       484,
   34.3398,       540,
     34.36,       608,
   34.3802,       669,
   34.4004,       955,
   34.4206,      1236,
   34.4409,      1357,
   34.4611,      1371,
   34.4813,      1345,
   34.5015,      1249,
   34.5217,      1270,
    34.542,      1085,
   34.5622,       855,
   34.5824,       755,
   34.6026,       705,
   34.6228,       616,
    34.643,       663,
   34.6633,       655,
   34.6835,       628,
   34.7037,       688,
   34.7239,       627,
   34.7441,       782,
   34.7644,       831,
   34.7846,       905,
   34.8048,       970,
    34.825,      1126,
   34.8452,      1162,
   34.8655,      1169,
   34.8857,      1133,
   34.9059,      1141,
   34.9261,      1166,
   34.9463,      1160,
   34.9665,      1092,
   34.9868,      1104,
    35.007,      1090,
   35.0272,       993,
   35.0474,      1034,
   35.0676,      1048,
   35.0879,      1026,
   35.1081,      1003,
   35.1283,       999,
   35.1485,       965,
   35.1687,       995,
    35.189,      1034,
   35.2092,      1081,
   35.2294,      1058,
   35.2496,      1133,
   35.2698,      1180,
     35.29,      1190,
   35.3103,      1183,
   35.3305,      1286,
   35.3507,      1308,
   35.3709,      1383,
   35.3911,      1449,
   35.4114,      1503,
   35.4316,      1602,
   35.4518,      1564,
    35.472,      1667,
   35.4922,      1678,
   35.5125,      1754,
   35.5327,      1751,
   35.5529,      1785,
   35.5731,      1845,
   35.5933,      1866,
   35.6135,      1911,
   35.6338,      1876,
    35.654,      2019,
   35.6742,      2058,
   35.6944,      2100,
   35.7146,      2119,
   35.7349,      2059,
   35.7551,      2064,
   35.7753,      2029,
   35.7955,      1954,
   35.8157,      1895,
    35.836,      1935,
   35.8562,      1831,
   35.8764,      1743,
   35.8966,      1832,
   35.9168,      1708,
    35.937,      1667,
   35.9573,      1553,
   35.9775,      1419,
   35.9977,      1439,
   36.0179,      1388,
   36.0381,      1255,
   36.0584,      1150,
   36.0786,      1062,
   36.0988,      1044,
    36.119,       984,
   36.1392,       975,
   36.1595,       941,
   36.1797,       873,
   36.1999,       848,
   36.2201,       773,
   36.2403,       738,
   36.2605,       751,
   36.2808,       721,
    36.301,       706,
   36.3212,       784,
   36.3414,       759,
   36.3616,       883,
   36.3819,       859,
   36.4021,       903,
   36.4223,       809,
   36.4425,       741,
   36.4627,       754,
    36.483,       667,
   36.5032,       608,
   36.5234,       598,
   36.5436,       546,
   36.5638,       534,
    36.584,       497,
   36.6043,       481,
   36.6245,       496,
   36.6447,       407,
   36.6649,       428,
   36.6851,       489,
   36.7054,       479,
   36.7256,       448,
   36.7458,       469,
    36.766,       505,
   36.7862,       475,
   36.8065,       497,
   36.8267,       510,
   36.8469,       512,
   36.8671,       499,
   36.8873,       531,
   36.9075,       539,
   36.9278,       542,
    36.948,       579,
   36.9682,       646,
   36.9884,       798,
   37.0086,       892,
   37.0289,      1062,
   37.0491,      1400,
   37.0693,      1700,
   37.0895,      2157,
   37.1097,      2444,
     37.13,      2487,
   37.1502,      2197,
   37.1704,      1986,
   37.1906,      1853,
   37.2108,      1681,
    37.231,      1381,
   37.2513,      1110,
   37.2715,       837,
   37.2917,       667,
   37.3119,       651,
   37.3321,       594,
   37.3524,       597,
   37.3726,       487,
   37.3928,       513,
    37.413,       459,
   37.4332,       468,
   37.4535,       474,
   37.4737,       420,
   37.4939,       444,
   37.5141,       415,
   37.5343,       448,
   37.5545,       424,
   37.5748,       431,
    37.595,       388,
   37.6152,       425,
   37.6354,       414,
   37.6556,       394,
   37.6759,       417,
   37.6961,       446,
   37.7163,       488,
   37.7365,       479,
   37.7567,       457,
    37.777,       460,
   37.7972,       421,
   37.8174,       415,
   37.8376,       399,
   37.8578,       404,
    37.878,       368,
   37.8983,       375,
   37.9185,       393,
   37.9387,       420,
   37.9589,       448,
   37.9791,       426,
   37.9994,       391,
   38.0196,       431,
   38.0398,       426,
     38.06,       398,
   38.0802,       423,
   38.1005,       419,
   38.1207,       414,
   38.1409,       448,
   38.1611,       464,
   38.1813,       475,
   38.2015,       462,
   38.2218,       490,
    38.242,       536,
   38.2622,       603,
   38.2824,       668,
   38.3026,       729,
   38.3229,       760,
   38.3431,       654,
   38.3633,       650,
   38.3835,       616,
   38.4037,       606,
    38.424,       604,
   38.4442,       556,
   38.4644,       500,
   38.4846,       481,
   38.5048,       514,
    38.525,       506,
   38.5453,       531,
   38.5655,       512,
   38.5857,       569,
   38.6059,       621,
   38.6261,       637,
   38.6464,       737,
   38.6666,       923,
   38.6868,      1192,
    38.707,      1584,
   38.7272,      1986,
   38.7475,      2429,
   38.7677,      2192,
   38.7879,      1939,
   38.8081,      1714,
   38.8283,      1586,
   38.8485,      1440,
   38.8688,      1125,
    38.889,       876,
   38.9092,       718,
   38.9294,       600,
   38.9496,       598,
   38.9699,       544,
   38.9901,       578,
   39.0103,       535,
   39.0305,       539,
   39.0507,       520,
    39.071,       518,
   39.0912,       535,
   39.1114,       476,
   39.1316,       484,
   39.1518,       467,
    39.172,       434,
   39.1923,       433,
   39.2125,       439,
   39.2327,       361,
   39.2529,       420,
   39.2731,       376,
   39.2934,       406,
   39.3136,       371,
   39.3338,       349,
    39.354,       362,
   39.3742,       351,
   39.3945,       385,
   39.4147,       353,
   39.4349,       379,
   39.4551,       379,
   39.4753,       352,
   39.4955,       335,
   39.5158,       319,
    39.536,       352,
   39.5562,       328,
   39.5764,       365,
   39.5966,       340,
   39.6169,       369,
   39.6371,       350,
   39.6573,       333,
   39.6775,       363,
   39.6977,       354,
    39.718,       360,
   39.7382,       317,
   39.7584,       387,
   39.7786,       361,
   39.7988,       335,
    39.819,       338,
   39.8393,       356,
   39.8595,       350,
   39.8797,       359,
   39.8999,       352,
   39.9201,       335,
   39.9404,       370,
   39.9606,       385,
   39.9808,       360,
    40.001,       382,
   40.0212,       374,
   40.0415,       336,
   40.0617,       400,
   40.0819,       399,
   40.1021,       324,
   40.1223,       364,
   40.1425,       353,
   40.1628,       365,
    40.183,       363,
   40.2032,       355,
   40.2234,       332,
   40.2436,       347,
   40.2639,       389,
   40.2841,       349,
   40.3043,       353,
   40.3245,       361,
   40.3447,       362,
    40.365,       357,
   40.3852,       347,
   40.4054,       371,
   40.4256,       390,
   40.4458,       395,
    40.466,       389,
   40.4863,       405,
   40.5065,       342,
   40.5267,       375,
   40.5469,       403,
   40.5671,       407,
   40.5874,       390,
   40.6076,       427,
   40.6278,       395,
    40.648,       378,
   40.6682,       381,
   40.6885,       359,
   40.7087,       377,
   40.7289,       371,
   40.7491,       387,
   40.7693,       399,
   40.7895,       396,
   40.8098,       348,
     40.83,       404,
   40.8502,       390,
   40.8704,       408,
   40.8906,       395,
   40.9109,       387,
   40.9311,       350,
   40.9513,       381,
   40.9715,       388,
   40.9917,       359,
    41.012,       397,
   41.0322,       381,
   41.0524,       364,
   41.0726,       421,
   41.0928,       405,
   41.1131,       383,
   41.1333,       357,
   41.1535,       387,
   41.1737,       353,
   41.1939,       376,
   41.2141,       370,
   41.2344,       404,
   41.2546,       348,
   41.2748,       397,
    41.295,       374,
   41.3152,       389,
   41.3355,       394,
   41.3557,       378,
   41.3759,       376,
   41.3961,       349,
   41.4163,       343,
   41.4366,       409,
   41.4568,       367,
    41.477,       383,
   41.4972,       374,
   41.5174,       360,
   41.5376,       376,
   41.5579,       358,
   41.5781,       362,
   41.5983,       388,
   41.6185,       393,
   41.6387,       388,
    41.659,       362,
   41.6792,       385,
   41.6994,       339,
   41.7196,       364,
   41.7398,       355,
   41.7601,       389,
   41.7803,       381,
   41.8005,       390,
   41.8207,       382,
   41.8409,       348,
   41.8611,       402,
   41.8814,       396,
   41.9016,       388,
   41.9218,       401,
    41.942,       382,
   41.9622,       432,
   41.9825,       442,
   42.0027,       401,
   42.0229,       411,
   42.0431,       434,
   42.0633,       468,
   42.0836,       531,
   42.1038,       535,
    42.124,       596,
   42.1442,       665,
   42.1644,       685,
   42.1846,       906,
   42.2049,      1033,
   42.2251,      1223,
   42.2453,      1311,
   42.2655,      1516,
   42.2857,      1498,
    42.306,      1407,
   42.3262,      1387,
   42.3464,      1564,
   42.3666,      1533,
   42.3868,      1389,
   42.4071,      1110,
   42.4273,       945,
   42.4475,       895,
   42.4677,       903,
   42.4879,       749,
   42.5081,       613,
   42.5284,       569,
   42.5486,       487,
   42.5688,       509,
    42.589,       473,
   42.6092,       459,
   42.6295,       496,
   42.6497,       492,
   42.6699,       447,
   42.6901,       489,
   42.7103,       497,
   42.7306,       492,
   42.7508,       462,
    42.771,       512,
   42.7912,       485,
   42.8114,       461,
   42.8316,       446,
   42.8519,       466,
   42.8721,       453,
   42.8923,       473,
   42.9125,       470,
   42.9327,       466,
    42.953,       445,
   42.9732,       441,
   42.9934,       475,
   43.0136,       429,
   43.0338,       445,
   43.0541,       445,
   43.0743,       455,
   43.0945,       476,
   43.1147,       509,
   43.1349,       494,
   43.1551,       491,
   43.1754,       465,
   43.1956,       515,
   43.2158,       500,
    43.236,       517,
   43.2562,       555,
   43.2765,       529,
   43.2967,       488,
   43.3169,       585,
   43.3371,       529,
   43.3573,       581,
   43.3776,       553,
   43.3978,       579,
    43.418,       631,
   43.4382,       581,
   43.4584,       623,
   43.4786,       638,
   43.4989,       608,
   43.5191,       642,
   43.5393,       667,
   43.5595,       681,
   43.5797,       701,
      43.6,       831,
   43.6202,       955,
   43.6404,      1097,
   43.6606,       994,
   43.6808,       899,
   43.7011,       830,
   43.7213,       751,
   43.7415,       807,
   43.7617,       691,
   43.7819,       641,
   43.8021,       531,
   43.8224,       494,
   43.8426,       501,
   43.8628,       438,
    43.883,       433,
   43.9032,       480,
   43.9235,       442,
   43.9437,       403,
   43.9639,       425,
   43.9841,       387,
   44.0043,       419,
   44.0246,       404,
   44.0448,       361,
    44.065,       384,
   44.0852,       413,
   44.1054,       413,
   44.1256,       396,
   44.1459,       416,
   44.1661,       449,
   44.1863,       430,
   44.2065,       445,
   44.2267,       493,
    44.247,       537,
   44.2672,       666,
   44.2874,       800,
   44.3076,      1047,
   44.3278,      1367,
   44.3481,      1587,
   44.3683,      1786,
   44.3885,      1575,
   44.4087,      1390,
   44.4289,      1252,
   44.4491,      1204,
   44.4694,      1192,
   44.4896,       950,
   44.5098,       790,
     44.53,       632,
   44.5502,       548,
   44.5705,       506,
   44.5907,       458,
   44.6109,       443,
   44.6311,       453,
   44.6513,       378,
   44.6716,       407,
   44.6918,       416,
    44.712,       439,
   44.7322,       394,
   44.7524,       437,
   44.7726,       404,
   44.7929,       415,
   44.8131,       443,
   44.8333,       464,
   44.8535,       446,
   44.8737,       462,
    44.894,       535,
   44.9142,       634,
   44.9344,       737,
   44.9546,       952,
   44.9748,      1112,
   44.9951,      1270,
   45.0153,      1383,
   45.0355,      1154,
   45.0557,       995,
   45.0759,       964,
   45.0961,       988,
   45.1164,       978,
   45.1366,       899,
   45.1568,       852,
    45.177,       890,
   45.1972,       977,
   45.2175,      1105,
   45.2377,      1030,
   45.2579,       932,
   45.2781,       776,
   45.2983,       809,
   45.3186,       730,
   45.3388,       689,
    45.359,       622,
   45.3792,       483,
   45.3994,       461,
   45.4196,       417,
   45.4399,       384,
   45.4601,       319,
   45.4803,       368,
   45.5005,       353,
   45.5207,       324,
    45.541,       317,
   45.5612,       296,
   45.5814,       337,
   45.6016,       341,
   45.6218,       339,
   45.6421,       326,
   45.6623,       302,
   45.6825,       314,
   45.7027,       356,
   45.7229,       329,
   45.7431,       332,
   45.7634,       323,
   45.7836,       299,
   45.8038,       338,
    45.824,       295,
   45.8442,       289,
   45.8645,       302,
   45.8847,       299,
   45.9049,       314,
   45.9251,       313,
   45.9453,       298,
   45.9656,       304,
   45.9858,       292,
    46.006,       308,
   46.0262,       313,
   46.0464,       323,
   46.0666,       306,
   46.0869,       317,
   46.1071,       280,
   46.1273,       339,
   46.1475,       318,
   46.1677,       341,
    46.188,       377,
   46.2082,       381,
   46.2284,       420,
   46.2486,       457,
   46.2688,       449,
   46.2891,       454,
   46.3093,       466,
   46.3295,       430,
   46.3497,       403,
   46.3699,       409,
   46.3901,       405,
   46.4104,       393,
   46.4306,       366,
   46.4508,       372,
    46.471,       346,
   46.4912,       335,
   46.5115,       320,
   46.5317,       363,
   46.5519,       356,
   46.5721,       370,
   46.5923,       338,
   46.6126,       368,
   46.6328,       310,
    46.653,       364,
   46.6732,       368,
   46.6934,       373,
   46.7136,       322,
   46.7339,       394,
   46.7541,       396,
   46.7743,       443,
   46.7945,       432,
   46.8147,       424,
    46.835,       460,
   46.8552,       442,
   46.8754,       422,
   46.8956,       462,
   46.9158,       441,
   46.9361,       413,
   46.9563,       402,
   46.9765,       434,
   46.9967,       381,
   47.0169,       393,
   47.0371,       400,
   47.0574,       429,
   47.0776,       411,
   47.0978,       429,
    47.118,       370,
   47.1382,       424,
   47.1585,       409,
   47.1787,       427,
   47.1989,       429,
   47.2191,       442,
   47.2393,       430,
   47.2596,       398,
   47.2798,       456,
      47.3,       453,
   47.3202,       431,
   47.3404,       470,
   47.3606,       485,
   47.3809,       451,
   47.4011,       491,
   47.4213,       470,
   47.4415,       500,
   47.4617,       547,
    47.482,       506,
   47.5022,       512,
   47.5224,       570,
   47.5426,       578,
   47.5628,       579,
   47.5831,       588,
   47.6033,       577,
   47.6235,       628,
   47.6437,       650,
   47.6639,       616,
   47.6841,       639,
   47.7044,       692,
   47.7246,       689,
   47.7448,       677,
    47.765,       694,
   47.7852,       625,
   47.8055,       623,
   47.8257,       705,
   47.8459,       667,
   47.8661,       706,
   47.8863,       698,
   47.9066,       672,
   47.9268,       670,
    47.947,       657,
   47.9672,       597,
   47.9874,       624,
   48.0076,       603,
   48.0279,       611,
   48.0481,       595,
   48.0683,       561,
   48.0885,       572,
   48.1087,       601,
    48.129,       551,
   48.1492,       470,
   48.1694,       566,
   48.1896,       544,
   48.2098,       592,
   48.2301,       637,
   48.2503,       677,
   48.2705,       785,
   48.2907,       862,
   48.3109,       887,
   48.3311,       776,
   48.3514,       675,
   48.3716,       671,
   48.3918,       666,
    48.412,       695,
   48.4322,       638,
   48.4525,       524,
   48.4727,       483,
   48.4929,       472,
   48.5131,       451,
   48.5333,       378,
   48.5536,       362,
   48.5738,       370,
    48.594,       328,
   48.6142,       354,
   48.6344,       350,
   48.6546,       367,
   48.6749,       305,
   48.6951,       313,
   48.7153,       280,
   48.7355,       348,
   48.7557,       340,
    48.776,       316,
   48.7962,       334,
   48.8164,       315,
   48.8366,       294,
   48.8568,       290,
   48.8771,       325,
   48.8973,       287,
   48.9175,       270,
   48.9377,       300,
   48.9579,       299,
   48.9781,       263,
   48.9984,       294,
   49.0186,       307,
   49.0388,       277,
    49.059,       253,
   49.0792,       304,
   49.0995,       315,
   49.1197,       293,
   49.1399,       280,
   49.1601,       271,
   49.1803,       300,
   49.2006,       273,
   49.2208,       279,
    49.241,       288,
   49.2612,       265,
   49.2814,       252,
   49.3016,       297,
   49.3219,       287,
   49.3421,       260,
   49.3623,       277,
   49.3825,       269,
   49.4027,       289,
    49.423,       303,
   49.4432,       278,
   49.4634,       254,
   49.4836,       293,
   49.5038,       303,
   49.5241,       284,
   49.5443,       257,
   49.5645,       284,
   49.5847,       294,
   49.6049,       287,
   49.6251,       269,
   49.6454,       272,
   49.6656,       291,
   49.6858,       304,
    49.706,       293,
   49.7262,       296,
   49.7465,       267,
   49.7667,       266,
   49.7869,       307,
   49.8071,       287,
   49.8273,       257,
   49.8476,       306,
   49.8678,       287,
    49.888,       291,
   49.9082,       291,
   49.9284,       335,
   49.9486,       305,
   49.9689,       303,
   49.9891,       292,
   50.0093,       321,
   50.0295,       305,
   50.0497,       305,
     50.07,       344,
   50.0902,       335,
   50.1104,       340,
   50.1306,       343,
   50.1508,       319,
   50.1711,       359,
   50.1913,       372,
   50.2115,       399,
   50.2317,       377,
   50.2519,       416,
   50.2721,       536,
   50.2924,       656,
   50.3126,       843,
   50.3328,       993,
    50.353,      1101,
   50.3732,       989,
   50.3935,       862,
   50.4137,       745,
   50.4339,       751,
   50.4541,       734,
   50.4743,       673,
   50.4946,       625,
   50.5148,       508,
    50.535,       437,
   50.5552,       424,
   50.5754,       400,
   50.5956,       344,
   50.6159,       341,
   50.6361,       353,
   50.6563,       323,
   50.6765,       427,
   50.6967,       446,
    50.717,       438,
   50.7372,       411,
   50.7574,       435,
   50.7776,       454,
   50.7978,       418,
   50.8181,       424,
   50.8383,       454,
   50.8585,       380,
   50.8787,       403,
   50.8989,       372,
   50.9191,       357,
   50.9394,       380,
   50.9596,       386,
   50.9798,       355,
        51,       360,
   51.0202,       368,
   51.0405,       350,
   51.0607,       328,
   51.0809,       359,
   51.1011,       370,
   51.1213,       335,
   51.1416,       355,
   51.1618,       382,
    51.182,       399,
   51.2022,       370,
   51.2224,       389,
   51.2426,       370,
   51.2629,       383,
   51.2831,       380,
   51.3033,       411,
   51.3235,       412,
   51.3437,       412,
    51.364,       422,
   51.3842,       416,
   51.4044,       417,
   51.4246,       425,
   51.4448,       398,
   51.4651,       379,
   51.4853,       365,
   51.5055,       370,
   51.5257,       343,
   51.5459,       376,
   51.5661,       355,
   51.5864,       355,
   51.6066,       383,
   51.6268,       382,
    51.647,       339,
   51.6672,       373,
   51.6875,       314,
   51.7077,       337,
   51.7279,       383,
   51.7481,       338,
   51.7683,       354,
   51.7886,       359,
   51.8088,       353,
    51.829,       391,
   51.8492,       371,
   51.8694,       415,
   51.8897,       388,
   51.9099,       404,
   51.9301,       413,
   51.9503,       404,
   51.9705,       412,
   51.9907,       459,
    52.011,       426,
   52.0312,       424,
   52.0514,       457,
   52.0716,       444,
   52.0918,       458,
   52.1121,       508,
   52.1323,       462,
   52.1525,       467,
   52.1727,       478,
   52.1929,       491,
   52.2132,       532,
   52.2334,       509,
   52.2536,       516,
   52.2738,       514,
    52.294,       541,
   52.3142,       539,
   52.3345,       546,
   52.3547,       565,
   52.3749,       534,
   52.3951,       528,
   52.4153,       525,
   52.4356,       512,
   52.4558,       525,
    52.476,       516,
   52.4962,       521,
   52.5164,       488,
   52.5367,       437,
   52.5569,       491,
   52.5771,       450,
   52.5973,       408,
   52.6175,       448,
   52.6377,       397,
    52.658,       429,
   52.6782,       416,
   52.6984,       389,
   52.7186,       375,
   52.7388,       404,
   52.7591,       372,
   52.7793,       395,
   52.7995,       377,
   52.8197,       345,
   52.8399,       327,
   52.8602,       366,
   52.8804,       320,
   52.9006,       355,
   52.9208,       311,
    52.941,       342,
   52.9612,       329,
   52.9815,       335,
   53.0017,       359,
   53.0219,       365,
   53.0421,       347,
   53.0623,       353,
   53.0826,       361,
   53.1028,       384,
    53.123,       372,
   53.1432,       355,
   53.1634,       383,
   53.1837,       397,
   53.2039,       402,
   53.2241,       428,
   53.2443,       460,
   53.2645,       507,
   53.2847,       542,
    53.305,       611,
   53.3252,       738,
   53.3454,       840,
   53.3656,       960,
   53.3858,      1103,
   53.4061,      1154,
   53.4263,      1171,
   53.4465,      1123,
   53.4667,      1140,
   53.4869,      1018,
   53.5072,       951,
   53.5274,       962,
   53.5476,       887,
   53.5678,       847,
    53.588,       781,
   53.6082,       710,
   53.6285,       679,
   53.6487,       635,
   53.6689,       609,
   53.6891,       576,
   53.7093,       652,
   53.7296,       679,
   53.7498,       761,
     53.77,       940,
   53.7902,      1193,
   53.8104,      1583,
   53.8307,      2182,
   53.8509,      2752,
   53.8711,      2880,
   53.8913,      2346,
   53.9115,      1976,
   53.9317,      1669,
    53.952,      1605,
   53.9722,      1701,
   53.9924,      1785,
   54.0126,      1455,
   54.0328,      1128,
   54.0531,       874,
   54.0733,       616,
   54.0935,       543,
   54.1137,       477,
   54.1339,       487,
   54.1542,       412,
   54.1744,       423,
   54.1946,       387,
   54.2148,       357,
    54.235,       378,
   54.2552,       326,
   54.2755,       316,
   54.2957,       356,
   54.3159,       304,
   54.3361,       308,
   54.3563,       311,
   54.3766,       312,
   54.3968,       331,
    54.417,       299,
   54.4372,       311,
   54.4574,       309,
   54.4777,       304,
   54.4979,       311,
   54.5181,       293,
   54.5383,       288,
   54.5585,       272,
   54.5787,       311,
    54.599,       299,
   54.6192,       323,
   54.6394,       259,
   54.6596,       309,
   54.6798,       299,
   54.7001,       264,
   54.7203,       291,
   54.7405,       291,
   54.7607,       270,
   54.7809,       270,
   54.8012,       257,
   54.8214,       266,
   54.8416,       284,
   54.8618,       287,
    54.882,       265,
   54.9022,       281,
   54.9225,       276,
   54.9427,       263,
   54.9629,       300,
   54.9831,       264,
   55.0033,       260,
   55.0236,       264,
   55.0438,       289,
    55.064,       259,
   55.0842,       283,
   55.1044,       289,
   55.1247,       262,
   55.1449,       282,
   55.1651,       271,
   55.1853,       224,
   55.2055,       284,
   55.2257,       281,
    55.246,       238,
   55.2662,       260,
   55.2864,       275,
   55.3066,       265,
   55.3268,       278,
   55.3471,       297,
   55.3673,       285,
   55.3875,       270,
   55.4077,       325,
   55.4279,       351,
   55.4482,       323,
   55.4684,       337,
   55.4886,       336,
   55.5088,       349,
    55.529,       311,
   55.5492,       336,
   55.5695,       284,
   55.5897,       304,
   55.6099,       325,
   55.6301,       347,
   55.6503,       303,
   55.6706,       310,
   55.6908,       271,
    55.711,       301,
   55.7312,       297,
   55.7514,       306,
   55.7717,       318,
   55.7919,       312,
   55.8121,       319,
   55.8323,       313,
   55.8525,       334,
   55.8727,       330,
    55.893,       365,
   55.9132,       358,
   55.9334,       395,
   55.9536,       365,
   55.9738,       416,
   55.9941,       405,
   56.0143,       391,
   56.0345,       352,
   56.0547,       401,
   56.0749,       383,
   56.0952,       318,
   56.1154,       349,
   56.1356,       359,
   56.1558,       381,
    56.176,       333,
   56.1962,       341,
   56.2165,       355,
   56.2367,       353,
   56.2569,       372,
   56.2771,       349,
   56.2973,       353,
   56.3176,       372,
   56.3378,       341,
    56.358,       351,
   56.3782,       360,
   56.3984,       411,
   56.4187,       392,
   56.4389,       380,
   56.4591,       358,
   56.4793,       387,
   56.4995,       379,
   56.5197,       387,
     56.54,       438,
   56.5602,       454,
   56.5804,       437,
   56.6006,       482,
   56.6208,       490,
   56.6411,       466,
   56.6613,       531,
   56.6815,       558,
   56.7017,       633,
   56.7219,       710,
   56.7422,       822,
   56.7624,      1037,
   56.7826,      1195,
   56.8028,      1323,
    56.823,      1308,
   56.8432,      1327,
   56.8635,      1219,
   56.8837,      1117,
   56.9039,      1247,
   56.9241,      1402,
   56.9443,      1470,
   56.9646,      1419,
   56.9848,      1287,
    57.005,      1084,
   57.0252,       971,
   57.0454,       841,
   57.0657,       879,
   57.0859,       870,
   57.1061,       812,
   57.1263,       806,
   57.1465,       718,
   57.1667,       707,
    57.187,       629,
   57.2072,       554,
   57.2274,       591,
   57.2476,       563,
   57.2678,       522,
   57.2881,       510,
   57.3083,       499,
   57.3285,       521,
   57.3487,       442,
   57.3689,       483,
   57.3892,       432,
   57.4094,       444,
   57.4296,       425,
   57.4498,       398,
     57.47,       422,
   57.4902,       478,
   57.5105,       443,
   57.5307,       459,
   57.5509,       450,
   57.5711,       440,
   57.5913,       422,
   57.6116,       437,
   57.6318,       391,
    57.652,       461,
   57.6722,       414,
   57.6924,       452,
   57.7127,       454,
   57.7329,       443,
   57.7531,       435,
   57.7733,       492,
   57.7935,       462,
   57.8137,       438,
    57.834,       460,
   57.8542,       465,
   57.8744,       487,
   57.8946,       491,
   57.9148,       478,
   57.9351,       508,
   57.9553,       492,
   57.9755,       514,
   57.9957,       450,
   58.0159,       467,
   58.0362,       473,
   58.0564,       443,
   58.0766,       449,
   58.0968,       441,
    58.117,       510,
   58.1372,       445,
   58.1575,       469,
   58.1777,       428,
   58.1979,       462,
   58.2181,       424,
   58.2383,       454,
   58.2586,       419,
   58.2788,       509,
    58.299,       476,
   58.3192,       478,
   58.3394,       452,
   58.3597,       480,
   58.3799,       474,
   58.4001,       489,
   58.4203,       432,
   58.4405,       500,
   58.4607,       506,
    58.481,       510,
   58.5012,       479,
   58.5214,       474,
   58.5416,       484,
   58.5618,       496,
   58.5821,       490,
   58.6023,       501,
   58.6225,       505,
   58.6427,       556,
   58.6629,       551,
   58.6832,       561,
   58.7034,       515,
   58.7236,       579,
   58.7438,       528,
    58.764,       531,
   58.7842,       530,
   58.8045,       563,
   58.8247,       543,
   58.8449,       546,
   58.8651,       541,
   58.8853,       580,
   58.9056,       560,
   58.9258,       628,
    58.946,       628,
   58.9662,       624,
   58.9864,       647,
   59.0067,       728,
   59.0269,       828,
   59.0471,       984,
   59.0673,      1111,
   59.0875,      1272,
   59.1077,      1397,
    59.128,      1333,
   59.1482,      1104,
   59.1684,       994,
   59.1886,       905,
   59.2088,       924,
   59.2291,      1042,
   59.2493,       978,
   59.2695,       954,
   59.2897,       808,
   59.3099,       751,
   59.3302,       648,
   59.3504,       583,
   59.3706,       561,
   59.3908,       566,
    59.411,       501,
   59.4312,       501,
   59.4515,       490,
   59.4717,       556,
   59.4919,       486,
   59.5121,       499,
   59.5323,       464,
   59.5526,       461,
   59.5728,       418,
    59.593,       448,
   59.6132,       460,
   59.6334,       465,
   59.6537,       438,
   59.6739,       461,
   59.6941,       394,
   59.7143,       436,
   59.7345,       454,
   59.7547,       391,
    59.775,       434,
   59.7952,       390,
   59.8154,       364,
   59.8356,       354,
   59.8558,       376,
   59.8761,       341,
   59.8963,       375,
   59.9165,       361,
   59.9367,       339,
   59.9569,       344,
   59.9772,       340,
   59.9974,       388,
   60.0176,       327,
   60.0378,       315,
    60.058,       321,
   60.0782,       336,
   60.0985,       344,
   60.1187,       293,
   60.1389,       310,
   60.1591,       330,
   60.1793,       315,
   60.1996,       287,
   60.2198,       317,
     60.24,       306,
   60.2602,       298,
   60.2804,       297,
   60.3007,       312,
   60.3209,       320,
   60.3411,       305,
   60.3613,       300,
   60.3815,       245,
   60.4017,       264,
    60.422,       278,
   60.4422,       277,
   60.4624,       298,
   60.4826,       271,
   60.5028,       286,
   60.5231,       266,
   60.5433,       278,
   60.5635,       268,
   60.5837,       254,
   60.6039,       266,
   60.6242,       270,
   60.6444,       280,
   60.6646,       247,
   60.6848,       253,
    60.705,       271,
   60.7252,       288,
   60.7455,       225,
   60.7657,       252,
   60.7859,       251,
   60.8061,       264,
   60.8263,       251,
   60.8466,       243,
   60.8668,       262,
    60.887,       258,
   60.9072,       255,
   60.9274,       222,
   60.9477,       259,
   60.9679,       254,
   60.9881,       237,
   61.0083,       256,
   61.0285,       256,
   61.0487,       272,
    61.069,       255,
   61.0892,       294,
   61.1094,       309,
   61.1296,       318,
   61.1498,       314,
   61.1701,       325,
   61.1903,       335,
   61.2105,       298,
   61.2307,       304,
   61.2509,       255,
   61.2712,       283,
   61.2914,       292,
   61.3116,       282,
   61.3318,       289,
    61.352,       279,
   61.3722,       281,
   61.3925,       299,
   61.4127,       265,
   61.4329,       258,
   61.4531,       264,
   61.4733,       288,
   61.4936,       289,
   61.5138,       274,
    61.534,       295,
   61.5542,       303,
   61.5744,       272,
   61.5947,       308,
   61.6149,       349,
   61.6351,       370,
   61.6553,       414,
   61.6755,       482,
   61.6957,       559,
    61.716,       678,
   61.7362,       927,
   61.7564,      1025,
   61.7766,      1040,
   61.7968,      1006,
   61.8171,       900,
   61.8373,       723,
   61.8575,       719,
   61.8777,       687,
   61.8979,       730,
   61.9182,       738,
   61.9384,       677,
   61.9586,       600,
   61.9788,       515,
    61.999,       443,
   62.0192,       374,
   62.0395,       358,
   62.0597,       326,
   62.0799,       299,
   62.1001,       303,
   62.1203,       307,
   62.1406,       280,
   62.1608,       297,
    62.181,       301,
   62.2012,       322,
   62.2214,       290,
   62.2417,       303,
   62.2619,       317,
   62.2821,       334,
   62.3023,       408,
   62.3225,       430,
   62.3427,       518,
    62.363,       549,
   62.3832,       630,
   62.4034,       606,
   62.4236,       668,
   62.4438,       723,
   62.4641,       725,
   62.4843,       693,
   62.5045,       629,
   62.5247,       602,
   62.5449,       550,
   62.5652,       504,
   62.5854,       456,
   62.6056,       486,
   62.6258,       464,
    62.646,       400,
   62.6663,       362,
   62.6865,       346,
   62.7067,       317,
   62.7269,       305,
   62.7471,       293,
   62.7673,       253,
   62.7876,       262,
   62.8078,       275,
    62.828,       271,
   62.8482,       250,
   62.8684,       230,
   62.8887,       268,
   62.9089,       240,
   62.9291,       206,
   62.9493,       211,
   62.9695,       238,
   62.9898,       218,
     63.01,       211,
   63.0302,       247,
   63.0504,       235,
   63.0706,       207,
   63.0908,       219,
   63.1111,       223,
   63.1313,       233,
   63.1515,       222,
   63.1717,       235,
   63.1919,       239,
   63.2122,       220,
   63.2324,       240,
   63.2526,       224,
   63.2728,       236,
    63.293,       207,
   63.3133,       227,
   63.3335,       230,
   63.3537,       254,
   63.3739,       242,
   63.3941,       222,
   63.4143,       222,
   63.4346,       225,
   63.4548,       251,
    63.475,       248,
   63.4952,       257,
   63.5154,       262,
   63.5357,       277,
   63.5559,       297,
   63.5761,       292,
   63.5963,       335,
   63.6165,       289,
   63.6368,       279,
    63.657,       295,
   63.6772,       261,
   63.6974,       273,
   63.7176,       252,
   63.7378,       285,
   63.7581,       309,
   63.7783,       250,
   63.7985,       264,
   63.8187,       235,
   63.8389,       225,
   63.8592,       245,
   63.8794,       222,
   63.8996,       232,
   63.9198,       204,
     63.94,       235,
   63.9603,       225,
   63.9805,       222,
   64.0007,       220,
   64.0209,       215,
   64.0411,       237,
   64.0613,       194,
   64.0816,       227,
   64.1018,       215,
    64.122,       210,
   64.1422,       211,
   64.1624,       206,
   64.1827,       225,
   64.2029,       223,
   64.2231,       237,
   64.2433,       220,
   64.2635,       205,
   64.2838,       197,
    64.304,       163,
   64.3242,       196,
   64.3444,       189,
   64.3646,       219,
   64.3848,       198,
   64.4051,       207,
   64.4253,       212,
   64.4455,       211,
   64.4657,       201,
   64.4859,       193,
   64.5062,       213,
   64.5264,       218,
   64.5466,       204,
   64.5668,       234,
    64.587,       202,
   64.6073,       214,
   64.6275,       216,
   64.6477,       216,
   64.6679,       200,
   64.6881,       196,
   64.7083,       212,
   64.7286,       237,
   64.7488,       185,
    64.769,       200,
   64.7892,       219,
   64.8094,       223,
   64.8297,       217,
   64.8499,       193,
   64.8701,       224,
   64.8903,       190,
   64.9105,       208,
   64.9308,       227,
    64.951,       197,
   64.9712,       201,
   64.9914,       210,
   65.0116,       195,
   65.0318,       218,
   65.0521,       223,
   65.0723,       203,
   65.0925,       226,
   65.1127,       209,
   65.1329,       220,
   65.1532,       204,
   65.1734,       213,
   65.1936,       245,
   65.2138,       217,
    65.234,       182,
   65.2543,       209,
   65.2745,       207,
   65.2947,       209,
   65.3149,       203,
   65.3351,       211,
   65.3553,       211,
   65.3756,       192,
   65.3958,       221,
    65.416,       191,
   65.4362,       220,
   65.4564,       191,
   65.4767,       187,
   65.4969,       216,
   65.5171,       212,
   65.5373,       188,
   65.5575,       209,
   65.5778,       188,
    65.598,       192,
   65.6182,       199,
   65.6384,       219,
   65.6586,       193,
   65.6788,       233,
   65.6991,       198,
   65.7193,       208,
   65.7395,       218,
   65.7597,       224,
   65.7799,       229,
   65.8002,       214,
   65.8204,       212,
   65.8406,       190,
   65.8608,       203,
    65.881,       190,
   65.9013,       189,
   65.9215,       195,
   65.9417,       217,
   65.9619,       211,
   65.9821,       194,
   66.0023,       199,
   66.0226,       223,
   66.0428,       209,
    66.063,       226,
   66.0832,       196,
   66.1034,       217,
   66.1237,       198,
   66.1439,       221,
   66.1641,       239,
   66.1843,       252,
   66.2045,       243,
   66.2248,       247,
    66.245,       255,
   66.2652,       260,
   66.2854,       290,
   66.3056,       269,
   66.3258,       275,
   66.3461,       255,
   66.3663,       263,
   66.3865,       257,
   66.4067,       264,
   66.4269,       262,
   66.4472,       241,
   66.4674,       276,
   66.4876,       230,
   66.5078,       257,
    66.528,       262,
   66.5483,       255,
   66.5685,       296,
   66.5887,       288,
   66.6089,       316,
   66.6291,       314,
   66.6493,       339,
   66.6696,       356,
   66.6898,       366,
     66.71,       388,
   66.7302,       392,
   66.7504,       412,
   66.7707,       357,
   66.7909,       387,
   66.8111,       390,
   66.8313,       365,
   66.8515,       363,
   66.8718,       354,
    66.892,       361,
   66.9122,       353,
   66.9324,       339,
   66.9526,       333,
   66.9728,       308,
   66.9931,       285,
   67.0133,       313,
   67.0335,       289,
   67.0537,       301,
   67.0739,       328,
   67.0942,       311,
   67.1144,       319,
   67.1346,       278,
   67.1548,       272,
    67.175,       286,
   67.1953,       259,
   67.2155,       246,
   67.2357,       253,
   67.2559,       260,
   67.2761,       239,
   67.2963,       262,
   67.3166,       232,
   67.3368,       222,
    67.357,       230,
   67.3772,       203,
   67.3974,       231,
   67.4177,       200,
   67.4379,       212,
   67.4581,       196,
   67.4783,       231,
   67.4985,       212,
   67.5188,       229,
    67.539,       211,
   67.5592,       222,
   67.5794,       233,
   67.5996,       216,
   67.6198,       215,
   67.6401,       234,
   67.6603,       205,
   67.6805,       190,
   67.7007,       229,
   67.7209,       167,
   67.7412,       190,
   67.7614,       199,
   67.7816,       220,
   67.8018,       191,
    67.822,       236,
   67.8423,       234,
   67.8625,       242,
   67.8827,       254,
   67.9029,       256,
   67.9231,       281,
   67.9433,       253,
   67.9636,       268,
   67.9838,       260,
    68.004,       250,
   68.0242,       265,
   68.0444,       243,
   68.0647,       281,
   68.0849,       267,
   68.1051,       251,
   68.1253,       245,
   68.1455,       243,
   68.1658,       243,
    68.186,       197,
   68.2062,       244,
   68.2264,       244,
   68.2466,       225,
   68.2668,       237,
   68.2871,       195,
   68.3073,       222,
   68.3275,       223,
   68.3477,       222,
   68.3679,       243,
   68.3882,       210,
   68.4084,       215,
   68.4286,       223,
   68.4488,       228,
    68.469,       225,
   68.4893,       244,
   68.5095,       198,
   68.5297,       212,
   68.5499,       229,
   68.5701,       205,
   68.5903,       209,
   68.6106,       237,
   68.6308,       229,
    68.651,       223,
   68.6712,       248,
   68.6914,       248,
   68.7117,       268,
   68.7319,       241,
   68.7521,       271,
   68.7723,       264,
   68.7925,       233,
   68.8128,       249,
    68.833,       283,
   68.8532,       273,
   68.8734,       250,
   68.8936,       263,
   68.9138,       309,
   68.9341,       286,
   68.9543,       258,
   68.9745,       259,
   68.9947,       263,
   69.0149,       266,
   69.0352,       293,
   69.0554,       274,
   69.0756,       255,
   69.0958,       246,
    69.116,       276,
   69.1363,       277,
   69.1565,       259,
   69.1767,       252,
   69.1969,       266,
   69.2171,       279,
   69.2373,       263,
   69.2576,       246,
   69.2778,       255,
    69.298,       259,
   69.3182,       234,
   69.3384,       249,
   69.3587,       263,
   69.3789,       248,
   69.3991,       244,
   69.4193,       254,
   69.4395,       254,
   69.4598,       254,
     69.48,       258,
   69.5002,       248,
   69.5204,       256,
   69.5406,       222,
   69.5608,       274,
   69.5811,       273,
   69.6013,       247,
   69.6215,       262,
   69.6417,       298,
   69.6619,       268,
   69.6822,       257,
   69.7024,       238,
   69.7226,       272,
   69.7428,       309,
    69.763,       268,
   69.7833,       268,
   69.8035,       292,
   69.8237,       284,
   69.8439,       285,
   69.8641,       294,
   69.8843,       291,
   69.9046,       287,
   69.9248,       283,
    69.945,       277,
   69.9652,       281,
   69.9854,       334,
   70.0057,       362,
