;RAW4.00
[RawHeader]
Date=11/19/2019
EstimatedTotalTime=1739.32
FurtherDQLReading=0
HardwareIndicator=65519
MeasuredTotalTime=1739.32
MeasurementFlag=1
NumberOfMeasuredRanges=1
NumberOfRanges=1
Time=21:03:30

[VarInfo]
Type=USER
Flags=0
Value=Bruker Service

[VarInfo]
Type=SAMPLEID
Flags=0
Value=Commander Sample ID

[VarInfo]
Type=COMMENT
Flags=0
Value=

[VarInfo]
Type=UTF
Flags=0
Value=

[VarInfo]
Type=CREATOR
Flags=0
Value=BrmlToV4Converter

[VarInfo]
Type=CREATOR_VERSION
Flags=0
Value=7.3.0.0

[HardwareConfiguration]
AbsorptionFactor=9999
ActivateAbsorber=0
Alpha1=1.78897
Alpha2=1.79285
AlphaAverage=1.79026
AlphaRatio=0.5
Analyzer=0
Anode=Co
AntiScatteringSlit=9999
BeamOpticsFlags=0
Beta=1.62079
BetaRelativeIntensity=0
DeactivateAbsorber=0
DetectorSlit=9999
DivergenceSlit=1
GoniometerControl=0
GoniometerDiameter=282
GoniometerModel=256
GoniometerStage=7
Monochromator=0
NearSampleSlit=9999
PrimarySollerSlit=9999
SampleChanger=0
SecondSollerSlit=9999
SynchronousAxis=0
ThinFilmAttachment=9999
WaveUnit=A

[RangeHeader]
ActuallyUsedLambda=1.79026
AdditionalDetectorMask=257
DataRecordLength=4
DelayTime=0
DisplayPlaneNumber=0
EstimatedScanTime=1739
ExtraParametersMask=0
GeneratorCurrent=10
GeneratorVoltage=30
Increment=0.0202188
Increment3=0
NumberOfCompletedData=3216
NumberOfCounts=1
NumberOfDetectors=0
NumberOfDrives=2
NumberOfEncoderDrives=0
NumberOfMeasuredData=3216
NumberOfVaryingParameters=0
RangeStartTime=0
RotationSpeed=1
ScanMode=1
ScanType=Locked Coupled
SimulatedMeasConditions=0
SlitChangerIn=0
SmootingWidth=0
Start=5.00234
Steps=3216
SynchronousRotation=0
Time=82.5

[VarInfo]
Type=PSD_DISCRIM
Flags=0
Value=0.11;0.25

[PSD]
ActualTwoTheta=9999
FirstUsedChannel=0
FixedPSD=0
PSDOpening=5.00414
PSDType=5

[Drive]
DriveFlags=1
DriveName=2Theta
DriveNumber=2
DriveOffset=0
OffsetIndex=0
OscillationAmplitude=0
OscillationSpeed=0
StartPosition=5.00234

[Drive]
DriveFlags=1
DriveName=Theta
DriveNumber=1
DriveOffset=0
OffsetIndex=0
OscillationAmplitude=0
OscillationSpeed=0
StartPosition=2.50117

[Data]
     Angle,       PSD,
   5.00234,      3360,
   5.02256,      3388,
   5.04278,      3561,
     5.063,      3423,
   5.08322,      3293,
   5.10344,      3364,
   5.12365,      3222,
   5.14387,      3245,
   5.16409,      3277,
   5.18431,      3190,
   5.20453,      3134,
   5.22475,      3095,
   5.24497,      2976,
   5.26519,      3030,
    5.2854,      2966,
   5.30562,      2794,
   5.32584,      2881,
   5.34606,      2862,
   5.36628,      2784,
    5.3865,      2778,
   5.40672,      2839,
   5.42694,      2715,
   5.44715,      2679,
   5.46737,      2728,
   5.48759,      2723,
   5.50781,      2643,
   5.52803,      2691,
   5.54825,      2562,
   5.56847,      2672,
   5.58869,      2574,
    5.6089,      2543,
   5.62912,      2510,
   5.64934,      2468,
   5.66956,      2416,
   5.68978,      2283,
      5.71,      2428,
   5.73022,      2421,
   5.75044,      2377,
   5.77065,      2335,
   5.79087,      2362,
   5.81109,      2291,
   5.83131,      2337,
   5.85153,      2366,
   5.87175,      2256,
   5.89197,      2149,
   5.91219,      2219,
    5.9324,      2117,
   5.95262,      2303,
   5.97284,      2148,
   5.99306,      2068,
   6.01328,      2137,
    6.0335,      2012,
   6.05372,      2115,
   6.07394,      2101,
   6.09415,      2004,
   6.11437,      2034,
   6.13459,      1961,
   6.15481,      1972,
   6.17503,      1986,
   6.19525,      1952,
   6.21547,      1932,
   6.23569,      1874,
    6.2559,      1839,
   6.27612,      1851,
   6.29634,      1881,
   6.31656,      1841,
   6.33678,      1657,
     6.357,      1760,
   6.37722,      1861,
   6.39744,      1778,
   6.41765,      1763,
   6.43787,      1772,
   6.45809,      1704,
   6.47831,      1701,
   6.49853,      1750,
   6.51875,      1729,
   6.53897,      1699,
   6.55919,      1653,
    6.5794,      1608,
   6.59962,      1607,
   6.61984,      1626,
   6.64006,      1619,
   6.66028,      1622,
    6.6805,      1573,
   6.70072,      1529,
   6.72094,      1644,
   6.74116,      1407,
   6.76137,      1548,
   6.78159,      1503,
   6.80181,      1446,
   6.82203,      1493,
   6.84225,      1457,
   6.86247,      1431,
   6.88269,      1402,
   6.90291,      1391,
   6.92312,      1387,
   6.94334,      1292,
   6.96356,      1373,
   6.98378,      1387,
     7.004,      1328,
   7.02422,      1263,
   7.04444,      1338,
   7.06466,      1269,
   7.08487,      1317,
   7.10509,      1313,
   7.12531,      1300,
   7.14553,      1232,
   7.16575,      1249,
   7.18597,      1252,
   7.20619,      1243,
   7.22641,      1302,
   7.24662,      1267,
   7.26684,      1228,
   7.28706,      1139,
   7.30728,      1184,
    7.3275,      1195,
   7.34772,      1217,
   7.36794,      1183,
   7.38816,      1118,
   7.40837,      1117,
   7.42859,      1126,
   7.44881,      1130,
   7.46903,      1090,
   7.48925,      1137,
   7.50947,      1079,
   7.52969,      1064,
   7.54991,      1094,
   7.57012,      1085,
   7.59034,      1067,
   7.61056,      1080,
   7.63078,      1078,
     7.651,      1078,
   7.67122,      1071,
   7.69144,      1001,
   7.71166,      1019,
   7.73187,       950,
   7.75209,       990,
   7.77231,      1034,
   7.79253,       966,
   7.81275,       971,
   7.83297,      1002,
   7.85319,       849,
   7.87341,       963,
   7.89362,       975,
   7.91384,       973,
   7.93406,       880,
   7.95428,       902,
    7.9745,       904,
   7.99472,       950,
   8.01494,       896,
   8.03516,       841,
   8.05537,       876,
   8.07559,       857,
   8.09581,       876,
   8.11603,       878,
   8.13625,       808,
   8.15647,       804,
   8.17669,       813,
   8.19691,       808,
   8.21712,       847,
   8.23734,       836,
   8.25756,       799,
   8.27778,       825,
     8.298,       823,
   8.31822,       777,
   8.33844,       735,
   8.35866,       775,
   8.37887,       760,
   8.39909,       839,
   8.41931,       781,
   8.43953,       750,
   8.45975,       739,
   8.47997,       806,
   8.50019,       811,
   8.52041,       732,
   8.54062,       754,
   8.56084,       742,
   8.58106,       750,
   8.60128,       739,
    8.6215,       743,
   8.64172,       724,
   8.66194,       723,
   8.68216,       721,
   8.70237,       726,
   8.72259,       694,
   8.74281,       685,
   8.76303,       728,
   8.78325,       642,
   8.80347,       650,
   8.82369,       628,
   8.84391,       704,
   8.86413,       723,
   8.88434,       674,
   8.90456,       679,
   8.92478,       622,
     8.945,       615,
   8.96522,       619,
   8.98544,       614,
   9.00566,       603,
   9.02588,       625,
   9.04609,       683,
   9.06631,       694,
   9.08653,       644,
   9.10675,       659,
   9.12697,       580,
   9.14719,       626,
   9.16741,       642,
   9.18763,       621,
   9.20784,       639,
   9.22806,       594,
   9.24828,       615,
    9.2685,       613,
   9.28872,       620,
   9.30894,       627,
   9.32916,       600,
   9.34938,       558,
   9.36959,       607,
   9.38981,       600,
   9.41003,       603,
   9.43025,       549,
   9.45047,       556,
   9.47069,       553,
   9.49091,       609,
   9.51113,       583,
   9.53134,       562,
   9.55156,       588,
   9.57178,       559,
     9.592,       583,
   9.61222,       524,
   9.63244,       547,
   9.65266,       547,
   9.67288,       615,
   9.69309,       546,
   9.71331,       559,
   9.73353,       596,
   9.75375,       521,
   9.77397,       561,
   9.79419,       607,
   9.81441,       516,
   9.83463,       576,
   9.85484,       503,
   9.87506,       557,
   9.89528,       538,
    9.9155,       566,
   9.93572,       591,
   9.95594,       554,
   9.97616,       573,
   9.99638,       599,
   10.0166,       558,
   10.0368,       568,
    10.057,       551,
   10.0773,       506,
   10.0975,       528,
   10.1177,       566,
   10.1379,       546,
   10.1581,       487,
   10.1783,       531,
   10.1986,       551,
   10.2188,       548,
    10.239,       536,
   10.2592,       562,
   10.2794,       477,
   10.2997,       522,
   10.3199,       506,
   10.3401,       495,
   10.3603,       503,
   10.3805,       507,
   10.4008,       490,
    10.421,       514,
   10.4412,       495,
   10.4614,       513,
   10.4816,       496,
   10.5018,       516,
   10.5221,       529,
   10.5423,       539,
   10.5625,       530,
   10.5827,       512,
   10.6029,       526,
   10.6232,       501,
   10.6434,       489,
   10.6636,       503,
   10.6838,       504,
    10.704,       496,
   10.7243,       480,
   10.7445,       507,
   10.7647,       503,
   10.7849,       555,
   10.8051,       470,
   10.8253,       479,
   10.8456,       537,
   10.8658,       494,
    10.886,       462,
   10.9062,       534,
   10.9264,       520,
   10.9467,       500,
   10.9669,       485,
   10.9871,       464,
   11.0073,       528,
   11.0275,       510,
   11.0478,       491,
    11.068,       480,
   11.0882,       504,
   11.1084,       435,
   11.1286,       486,
   11.1488,       494,
   11.1691,       453,
   11.1893,       488,
   11.2095,       465,
   11.2297,       456,
   11.2499,       499,
   11.2702,       472,
   11.2904,       480,
   11.3106,       449,
   11.3308,       464,
    11.351,       527,
   11.3713,       461,
   11.3915,       542,
   11.4117,       498,
   11.4319,       540,
   11.4521,       499,
   11.4723,       489,
   11.4926,       497,
   11.5128,       487,
    11.533,       509,
   11.5532,       456,
   11.5734,       462,
   11.5937,       483,
   11.6139,       460,
   11.6341,       523,
   11.6543,       477,
   11.6745,       504,
   11.6948,       482,
    11.715,       458,
   11.7352,       465,
   11.7554,       469,
   11.7756,       451,
   11.7958,       446,
   11.8161,       455,
   11.8363,       443,
   11.8565,       483,
   11.8767,       465,
   11.8969,       492,
   11.9172,       493,
   11.9374,       457,
   11.9576,       492,
   11.9778,       499,
    11.998,       511,
   12.0183,       463,
   12.0385,       485,
   12.0587,       463,
   12.0789,       440,
   12.0991,       437,
   12.1193,       509,
   12.1396,       481,
   12.1598,       476,
     12.18,       440,
   12.2002,       491,
   12.2204,       476,
   12.2407,       463,
   12.2609,       462,
   12.2811,       456,
   12.3013,       517,
   12.3215,       443,
   12.3418,       525,
    12.362,       470,
   12.3822,       455,
   12.4024,       508,
   12.4226,       502,
   12.4428,       507,
   12.4631,       534,
   12.4833,       561,
   12.5035,       549,
   12.5237,       593,
   12.5439,       548,
   12.5642,       604,
   12.5844,       558,
   12.6046,       578,
   12.6248,       551,
    12.645,       485,
   12.6653,       525,
   12.6855,       453,
   12.7057,       450,
   12.7259,       461,
   12.7461,       464,
   12.7663,       459,
   12.7866,       460,
   12.8068,       482,
    12.827,       480,
   12.8472,       459,
   12.8674,       460,
   12.8877,       437,
   12.9079,       434,
   12.9281,       484,
   12.9483,       470,
   12.9685,       478,
   12.9888,       471,
    13.009,       493,
   13.0292,       475,
   13.0494,       492,
   13.0696,       494,
   13.0898,       481,
   13.1101,       433,
   13.1303,       473,
   13.1505,       453,
   13.1707,       456,
   13.1909,       501,
   13.2112,       474,
   13.2314,       491,
   13.2516,       520,
   13.2718,       531,
    13.292,       492,
   13.3123,       511,
   13.3325,       527,
   13.3527,       518,
   13.3729,       486,
   13.3931,       495,
   13.4133,       539,
   13.4336,       523,
   13.4538,       542,
    13.474,       601,
   13.4942,       585,
   13.5144,       631,
   13.5347,       639,
   13.5549,       672,
   13.5751,       734,
   13.5953,       797,
   13.6155,       988,
   13.6358,      1117,
    13.656,      1350,
   13.6762,      1671,
   13.6964,      2298,
   13.7166,      2992,
   13.7368,      3793,
   13.7571,      4935,
   13.7773,      6093,
   13.7975,      6978,
   13.8177,      7674,
   13.8379,      7670,
   13.8582,      7445,
   13.8784,      6443,
   13.8986,      5116,
   13.9188,      3476,
    13.939,      2184,
   13.9593,      1260,
   13.9795,       882,
   13.9997,       724,
   14.0199,       699,
   14.0401,       681,
   14.0603,       725,
   14.0806,       587,
   14.1008,       595,
    14.121,       585,
   14.1412,       604,
   14.1614,       585,
   14.1817,       581,
   14.2019,       529,
   14.2221,       539,
   14.2423,       482,
   14.2625,       461,
   14.2828,       517,
    14.303,       474,
   14.3232,       494,
   14.3434,       492,
   14.3636,       481,
   14.3838,       470,
   14.4041,       429,
   14.4243,       453,
   14.4445,       460,
   14.4647,       514,
   14.4849,       539,
   14.5052,       455,
   14.5254,       421,
   14.5456,       449,
   14.5658,       435,
    14.586,       450,
   14.6063,       433,
   14.6265,       429,
   14.6467,       473,
   14.6669,       470,
   14.6871,       487,
   14.7073,       456,
   14.7276,       448,
   14.7478,       427,
    14.768,       470,
   14.7882,       460,
   14.8084,       461,
   14.8287,       415,
   14.8489,       446,
   14.8691,       452,
   14.8893,       439,
   14.9095,       416,
   14.9298,       455,
     14.95,       399,
   14.9702,       437,
   14.9904,       415,
   15.0106,       466,
   15.0308,       442,
   15.0511,       394,
   15.0713,       426,
   15.0915,       434,
   15.1117,       430,
   15.1319,       449,
   15.1522,       481,
   15.1724,       435,
   15.1926,       435,
   15.2128,       438,
    15.233,       374,
   15.2533,       431,
   15.2735,       453,
   15.2937,       422,
   15.3139,       441,
   15.3341,       446,
   15.3543,       426,
   15.3746,       413,
   15.3948,       380,
    15.415,       426,
   15.4352,       414,
   15.4554,       411,
   15.4757,       425,
   15.4959,       402,
   15.5161,       417,
   15.5363,       446,
   15.5565,       381,
   15.5768,       403,
    15.597,       432,
   15.6172,       394,
   15.6374,       379,
   15.6576,       388,
   15.6778,       456,
   15.6981,       441,
   15.7183,       393,
   15.7385,       432,
   15.7587,       402,
   15.7789,       418,
   15.7992,       442,
   15.8194,       431,
   15.8396,       439,
   15.8598,       404,
     15.88,       417,
   15.9003,       391,
   15.9205,       403,
   15.9407,       416,
   15.9609,       456,
   15.9811,       409,
   16.0013,       377,
   16.0216,       407,
   16.0418,       413,
    16.062,       456,
   16.0822,       410,
   16.1024,       399,
   16.1227,       399,
   16.1429,       416,
   16.1631,       361,
   16.1833,       408,
   16.2035,       416,
   16.2238,       435,
    16.244,       395,
   16.2642,       391,
   16.2844,       416,
   16.3046,       367,
   16.3248,       413,
   16.3451,       393,
   16.3653,       363,
   16.3855,       412,
   16.4057,       413,
   16.4259,       410,
   16.4462,       392,
   16.4664,       406,
   16.4866,       384,
   16.5068,       385,
    16.527,       414,
   16.5473,       389,
   16.5675,       393,
   16.5877,       447,
   16.6079,       362,
   16.6281,       392,
   16.6483,       395,
   16.6686,       374,
   16.6888,       381,
    16.709,       420,
   16.7292,       422,
   16.7494,       400,
   16.7697,       351,
   16.7899,       384,
   16.8101,       394,
   16.8303,       400,
   16.8505,       397,
   16.8708,       385,
    16.891,       387,
   16.9112,       406,
   16.9314,       418,
   16.9516,       373,
   16.9718,       365,
   16.9921,       376,
   17.0123,       406,
   17.0325,       417,
   17.0527,       416,
   17.0729,       366,
   17.0932,       358,
   17.1134,       370,
   17.1336,       381,
   17.1538,       395,
    17.174,       377,
   17.1943,       377,
   17.2145,       372,
   17.2347,       395,
   17.2549,       383,
   17.2751,       382,
   17.2953,       377,
   17.3156,       398,
   17.3358,       384,
    17.356,       442,
   17.3762,       379,
   17.3964,       377,
   17.4167,       370,
   17.4369,       370,
   17.4571,       379,
   17.4773,       410,
   17.4975,       383,
   17.5178,       348,
    17.538,       379,
   17.5582,       392,
   17.5784,       378,
   17.5986,       363,
   17.6188,       359,
   17.6391,       395,
   17.6593,       400,
   17.6795,       395,
   17.6997,       344,
   17.7199,       373,
   17.7402,       404,
   17.7604,       369,
   17.7806,       386,
   17.8008,       349,
    17.821,       361,
   17.8413,       344,
   17.8615,       366,
   17.8817,       336,
   17.9019,       361,
   17.9221,       407,
   17.9423,       378,
   17.9626,       382,
   17.9828,       358,
    18.003,       334,
   18.0232,       379,
   18.0434,       372,
   18.0637,       309,
   18.0839,       359,
   18.1041,       386,
   18.1243,       337,
   18.1445,       367,
   18.1648,       333,
    18.185,       335,
   18.2052,       385,
   18.2254,       398,
   18.2456,       350,
   18.2658,       374,
   18.2861,       349,
   18.3063,       344,
   18.3265,       407,
   18.3467,       353,
   18.3669,       361,
   18.3872,       359,
   18.4074,       379,
   18.4276,       331,
   18.4478,       370,
    18.468,       364,
   18.4883,       380,
   18.5085,       339,
   18.5287,       358,
   18.5489,       363,
   18.5691,       369,
   18.5893,       361,
   18.6096,       338,
   18.6298,       340,
     18.65,       366,
   18.6702,       340,
   18.6904,       375,
   18.7107,       340,
   18.7309,       349,
   18.7511,       353,
   18.7713,       345,
   18.7915,       384,
   18.8118,       366,
    18.832,       373,
   18.8522,       376,
   18.8724,       345,
   18.8926,       319,
   18.9128,       400,
   18.9331,       362,
   18.9533,       346,
   18.9735,       380,
   18.9937,       334,
   19.0139,       360,
   19.0342,       361,
   19.0544,       336,
   19.0746,       356,
   19.0948,       363,
    19.115,       343,
   19.1353,       359,
   19.1555,       361,
   19.1757,       341,
   19.1959,       359,
   19.2161,       365,
   19.2363,       354,
   19.2566,       295,
   19.2768,       348,
    19.297,       348,
   19.3172,       370,
   19.3374,       359,
   19.3577,       354,
   19.3779,       407,
   19.3981,       375,
   19.4183,       370,
   19.4385,       357,
   19.4588,       362,
    19.479,       352,
   19.4992,       346,
   19.5194,       361,
   19.5396,       375,
   19.5599,       317,
   19.5801,       337,
   19.6003,       347,
   19.6205,       328,
   19.6407,       320,
   19.6609,       342,
   19.6812,       324,
   19.7014,       324,
   19.7216,       346,
   19.7418,       351,
    19.762,       351,
   19.7823,       387,
   19.8025,       341,
   19.8227,       367,
   19.8429,       380,
   19.8631,       301,
   19.8834,       339,
   19.9036,       338,
   19.9238,       367,
    19.944,       328,
   19.9642,       367,
   19.9844,       332,
   20.0047,       334,
   20.0249,       355,
   20.0451,       351,
   20.0653,       334,
   20.0855,       372,
   20.1058,       351,
    20.126,       349,
   20.1462,       332,
   20.1664,       367,
   20.1866,       323,
   20.2069,       343,
   20.2271,       340,
   20.2473,       333,
   20.2675,       328,
   20.2877,       341,
   20.3079,       330,
   20.3282,       340,
   20.3484,       340,
   20.3686,       347,
   20.3888,       332,
    20.409,       375,
   20.4293,       382,
   20.4495,       361,
   20.4697,       353,
   20.4899,       329,
   20.5101,       344,
   20.5304,       310,
   20.5506,       332,
   20.5708,       343,
    20.591,       340,
   20.6112,       319,
   20.6314,       367,
   20.6517,       343,
   20.6719,       334,
   20.6921,       332,
   20.7123,       332,
   20.7325,       344,
   20.7528,       353,
    20.773,       348,
   20.7932,       301,
   20.8134,       367,
   20.8336,       337,
   20.8539,       339,
   20.8741,       308,
   20.8943,       327,
   20.9145,       327,
   20.9347,       360,
   20.9549,       339,
   20.9752,       356,
   20.9954,       355,
   21.0156,       352,
   21.0358,       354,
    21.056,       315,
   21.0763,       335,
   21.0965,       303,
   21.1167,       302,
   21.1369,       325,
   21.1571,       346,
   21.1774,       333,
   21.1976,       343,
   21.2178,       339,
    21.238,       281,
   21.2582,       329,
   21.2784,       335,
   21.2987,       366,
   21.3189,       368,
   21.3391,       386,
   21.3593,       345,
   21.3795,       333,
   21.3998,       322,
     21.42,       312,
   21.4402,       353,
   21.4604,       333,
   21.4806,       291,
   21.5009,       306,
   21.5211,       364,
   21.5413,       316,
   21.5615,       319,
   21.5817,       341,
   21.6019,       317,
   21.6222,       330,
   21.6424,       322,
   21.6626,       348,
   21.6828,       352,
    21.703,       332,
   21.7233,       339,
   21.7435,       359,
   21.7637,       357,
   21.7839,       311,
   21.8041,       307,
   21.8244,       326,
   21.8446,       318,
   21.8648,       311,
    21.885,       321,
   21.9052,       322,
   21.9254,       315,
   21.9457,       316,
   21.9659,       323,
   21.9861,       309,
   22.0063,       354,
   22.0265,       327,
   22.0468,       332,
    22.067,       318,
   22.0872,       325,
   22.1074,       319,
   22.1276,       293,
   22.1479,       356,
   22.1681,       334,
   22.1883,       320,
   22.2085,       329,
   22.2287,       319,
   22.2489,       343,
   22.2692,       335,
   22.2894,       350,
   22.3096,       357,
   22.3298,       327,
     22.35,       291,
   22.3703,       321,
   22.3905,       323,
   22.4107,       326,
   22.4309,       330,
   22.4511,       314,
   22.4714,       348,
   22.4916,       298,
   22.5118,       382,
    22.532,       356,
   22.5522,       325,
   22.5724,       299,
   22.5927,       306,
   22.6129,       342,
   22.6331,       326,
   22.6533,       347,
   22.6735,       315,
   22.6938,       334,
    22.714,       320,
   22.7342,       309,
   22.7544,       308,
   22.7746,       321,
   22.7949,       282,
   22.8151,       319,
   22.8353,       371,
   22.8555,       345,
   22.8757,       332,
   22.8959,       315,
   22.9162,       326,
   22.9364,       318,
   22.9566,       311,
   22.9768,       327,
    22.997,       337,
   23.0173,       315,
   23.0375,       328,
   23.0577,       327,
   23.0779,       367,
   23.0981,       355,
   23.1184,       317,
   23.1386,       313,
   23.1588,       320,
    23.179,       340,
   23.1992,       327,
   23.2194,       326,
   23.2397,       328,
   23.2599,       332,
   23.2801,       301,
   23.3003,       319,
   23.3205,       322,
   23.3408,       334,
    23.361,       316,
   23.3812,       300,
   23.4014,       309,
   23.4216,       318,
   23.4419,       312,
   23.4621,       330,
   23.4823,       323,
   23.5025,       324,
   23.5227,       319,
   23.5429,       290,
   23.5632,       327,
   23.5834,       318,
   23.6036,       364,
   23.6238,       331,
    23.644,       332,
   23.6643,       302,
   23.6845,       317,
   23.7047,       308,
   23.7249,       347,
   23.7451,       327,
   23.7654,       300,
   23.7856,       316,
   23.8058,       327,
    23.826,       347,
   23.8462,       332,
   23.8664,       323,
   23.8867,       328,
   23.9069,       297,
   23.9271,       331,
   23.9473,       309,
   23.9675,       295,
   23.9878,       358,
    24.008,       311,
   24.0282,       320,
   24.0484,       285,
   24.0686,       310,
   24.0889,       312,
   24.1091,       343,
   24.1293,       315,
   24.1495,       373,
   24.1697,       356,
   24.1899,       353,
   24.2102,       372,
   24.2304,       366,
   24.2506,       379,
   24.2708,       374,
    24.291,       394,
   24.3113,       443,
   24.3315,       473,
   24.3517,       569,
   24.3719,       631,
   24.3921,       676,
   24.4124,       730,
   24.4326,       763,
   24.4528,       859,
    24.473,       793,
   24.4932,       697,
   24.5134,       606,
   24.5337,       526,
   24.5539,       464,
   24.5741,       462,
   24.5943,       408,
   24.6145,       410,
   24.6348,       367,
    24.655,       359,
   24.6752,       346,
   24.6954,       356,
   24.7156,       335,
   24.7359,       387,
   24.7561,       378,
   24.7763,       417,
   24.7965,       416,
   24.8167,       476,
   24.8369,       439,
   24.8572,       475,
   24.8774,       411,
   24.8976,       407,
   24.9178,       384,
    24.938,       363,
   24.9583,       350,
   24.9785,       340,
   24.9987,       308,
   25.0189,       331,
   25.0391,       314,
   25.0594,       309,
   25.0796,       304,
   25.0998,       345,
     25.12,       293,
   25.1402,       309,
   25.1604,       322,
   25.1807,       316,
   25.2009,       316,
   25.2211,       303,
   25.2413,       325,
   25.2615,       316,
   25.2818,       339,
    25.302,       297,
   25.3222,       314,
   25.3424,       319,
   25.3626,       318,
   25.3829,       297,
   25.4031,       316,
   25.4233,       280,
   25.4435,       307,
   25.4637,       311,
   25.4839,       278,
   25.5042,       277,
   25.5244,       279,
   25.5446,       315,
   25.5648,       337,
    25.585,       303,
   25.6053,       312,
   25.6255,       301,
   25.6457,       300,
   25.6659,       293,
   25.6861,       281,
   25.7064,       316,
   25.7266,       287,
   25.7468,       315,
    25.767,       308,
   25.7872,       302,
   25.8074,       307,
   25.8277,       288,
   25.8479,       339,
   25.8681,       291,
   25.8883,       327,
   25.9085,       298,
   25.9288,       296,
    25.949,       285,
   25.9692,       309,
   25.9894,       292,
   26.0096,       339,
   26.0299,       286,
   26.0501,       312,
   26.0703,       311,
   26.0905,       354,
   26.1107,       303,
   26.1309,       314,
   26.1512,       336,
   26.1714,       305,
   26.1916,       384,
   26.2118,       352,
    26.232,       338,
   26.2523,       320,
   26.2725,       351,
   26.2927,       361,
   26.3129,       335,
   26.3331,       326,
   26.3534,       334,
   26.3736,       276,
   26.3938,       310,
    26.414,       299,
   26.4342,       319,
   26.4544,       276,
   26.4747,       265,
   26.4949,       276,
   26.5151,       272,
   26.5353,       310,
   26.5555,       319,
   26.5758,       334,
    26.596,       315,
   26.6162,       289,
   26.6364,       305,
   26.6566,       293,
   26.6769,       300,
   26.6971,       278,
   26.7173,       293,
   26.7375,       284,
   26.7577,       311,
   26.7779,       345,
   26.7982,       327,
   26.8184,       298,
   26.8386,       265,
   26.8588,       303,
    26.879,       325,
   26.8993,       300,
   26.9195,       284,
   26.9397,       287,
   26.9599,       322,
   26.9801,       322,
   27.0004,       312,
   27.0206,       318,
   27.0408,       275,
    27.061,       301,
   27.0812,       299,
   27.1014,       351,
   27.1217,       342,
   27.1419,       340,
   27.1621,       327,
   27.1823,       331,
   27.2025,       366,
   27.2228,       334,
    27.243,       350,
   27.2632,       333,
   27.2834,       325,
   27.3036,       342,
   27.3239,       373,
   27.3441,       391,
   27.3643,       428,
   27.3845,       473,
   27.4047,       607,
   27.4249,       677,
   27.4452,       858,
   27.4654,      1010,
   27.4856,      1182,
   27.5058,      1307,
    27.526,      1534,
   27.5463,      1383,
   27.5665,      1346,
   27.5867,      1132,
   27.6069,       875,
   27.6271,       713,
   27.6474,       585,
   27.6676,       488,
   27.6878,       459,
    27.708,       404,
   27.7282,       347,
   27.7484,       442,
   27.7687,       372,
   27.7889,       409,
   27.8091,       434,
   27.8293,       430,
   27.8495,       428,
   27.8698,       484,
     27.89,       481,
   27.9102,       441,
   27.9304,       403,
   27.9506,       423,
   27.9709,       400,
   27.9911,       380,
   28.0113,       364,
   28.0315,       340,
   28.0517,       354,
   28.0719,       347,
   28.0922,       322,
   28.1124,       372,
   28.1326,       358,
   28.1528,       299,
    28.173,       341,
   28.1933,       287,
   28.2135,       311,
   28.2337,       320,
   28.2539,       300,
   28.2741,       278,
   28.2944,       326,
   28.3146,       309,
   28.3348,       300,
    28.355,       301,
   28.3752,       321,
   28.3954,       306,
   28.4157,       326,
   28.4359,       271,
   28.4561,       261,
   28.4763,       302,
   28.4965,       276,
   28.5168,       297,
    28.537,       337,
   28.5572,       299,
   28.5774,       320,
   28.5976,       301,
   28.6179,       274,
   28.6381,       285,
   28.6583,       286,
   28.6785,       311,
   28.6987,       271,
   28.7189,       338,
   28.7392,       277,
   28.7594,       299,
   28.7796,       275,
   28.7998,       308,
     28.82,       333,
   28.8403,       352,
   28.8605,       361,
   28.8807,       338,
   28.9009,       336,
   28.9211,       336,
   28.9414,       357,
   28.9616,       289,
   28.9818,       377,
    29.002,       315,
   29.0222,       252,
   29.0424,       312,
   29.0627,       326,
   29.0829,       278,
   29.1031,       301,
   29.1233,       318,
   29.1435,       302,
   29.1638,       286,
    29.184,       316,
   29.2042,       272,
   29.2244,       265,
   29.2446,       291,
   29.2649,       273,
   29.2851,       292,
   29.3053,       290,
   29.3255,       294,
   29.3457,       311,
   29.3659,       294,
   29.3862,       291,
   29.4064,       262,
   29.4266,       279,
   29.4468,       277,
    29.467,       271,
   29.4873,       311,
   29.5075,       285,
   29.5277,       324,
   29.5479,       325,
   29.5681,       278,
   29.5884,       291,
   29.6086,       325,
   29.6288,       308,
    29.649,       336,
   29.6692,       347,
   29.6894,       297,
   29.7097,       292,
   29.7299,       261,
   29.7501,       275,
   29.7703,       263,
   29.7905,       307,
   29.8108,       288,
    29.831,       294,
   29.8512,       284,
   29.8714,       323,
   29.8916,       307,
   29.9119,       316,
   29.9321,       332,
   29.9523,       313,
   29.9725,       294,
   29.9927,       318,
   30.0129,       317,
   30.0332,       310,
   30.0534,       371,
   30.0736,       331,
   30.0938,       292,
    30.114,       347,
   30.1343,       348,
   30.1545,       361,
   30.1747,       344,
   30.1949,       371,
   30.2151,       410,
   30.2354,       358,
   30.2556,       367,
   30.2758,       357,
    30.296,       392,
   30.3162,       367,
   30.3365,       398,
   30.3567,       395,
   30.3769,       389,
   30.3971,       402,
   30.4173,       387,
   30.4375,       418,
   30.4578,       475,
    30.478,       451,
   30.4982,       458,
   30.5184,       494,
   30.5386,       561,
   30.5589,       562,
   30.5791,       631,
   30.5993,       663,
   30.6195,       714,
   30.6397,       843,
     30.66,       977,
   30.6802,      1215,
   30.7004,      1619,
   30.7206,      2121,
   30.7408,      3001,
    30.761,      3753,
   30.7813,      4784,
   30.8015,      5648,
   30.8217,      6157,
   30.8419,      5670,
   30.8621,      4932,
   30.8824,      4090,
   30.9026,      3251,
   30.9228,      2492,
    30.943,      1676,
   30.9632,      1245,
   30.9835,      1014,
   31.0037,       795,
   31.0239,       752,
   31.0441,       662,
   31.0643,       623,
   31.0845,       578,
   31.1048,       560,
    31.125,       541,
   31.1452,       507,
   31.1654,       474,
   31.1856,       503,
   31.2059,       478,
   31.2261,       445,
   31.2463,       420,
   31.2665,       429,
   31.2867,       423,
    31.307,       407,
   31.3272,       409,
   31.3474,       449,
   31.3676,       430,
   31.3878,       431,
    31.408,       365,
   31.4283,       398,
   31.4485,       399,
   31.4687,       368,
   31.4889,       372,
   31.5091,       396,
   31.5294,       408,
   31.5496,       428,
   31.5698,       403,
     31.59,       449,
   31.6102,       450,
   31.6305,       408,
   31.6507,       492,
   31.6709,       431,
   31.6911,       478,
   31.7113,       484,
   31.7315,       519,
   31.7518,       545,
    31.772,       560,
   31.7922,       609,
   31.8124,       725,
   31.8326,       803,
   31.8529,       968,
   31.8731,      1150,
   31.8933,      1468,
   31.9135,      1790,
   31.9337,      2265,
    31.954,      2875,
   31.9742,      3213,
   31.9944,      3437,
   32.0146,      3231,
   32.0348,      2887,
    32.055,      2452,
   32.0753,      1962,
   32.0955,      1525,
   32.1157,      1232,
   32.1359,      1008,
   32.1561,       759,
   32.1764,       703,
   32.1966,       644,
   32.2168,       639,
    32.237,       546,
   32.2572,       581,
   32.2775,       482,
   32.2977,       474,
   32.3179,       476,
   32.3381,       419,
   32.3583,       410,
   32.3785,       394,
   32.3988,       389,
    32.419,       376,
   32.4392,       364,
   32.4594,       351,
   32.4796,       352,
   32.4999,       332,
   32.5201,       319,
   32.5403,       344,
   32.5605,       353,
   32.5807,       326,
    32.601,       343,
   32.6212,       314,
   32.6414,       321,
   32.6616,       347,
   32.6818,       310,
    32.702,       290,
   32.7223,       310,
   32.7425,       331,
   32.7627,       273,
   32.7829,       313,
   32.8031,       286,
   32.8234,       312,
   32.8436,       333,
   32.8638,       275,
    32.884,       295,
   32.9042,       297,
   32.9245,       295,
   32.9447,       310,
   32.9649,       314,
   32.9851,       295,
   33.0053,       304,
   33.0255,       305,
   33.0458,       307,
    33.066,       311,
   33.0862,       308,
   33.1064,       309,
   33.1266,       308,
   33.1469,       284,
   33.1671,       322,
   33.1873,       289,
   33.2075,       287,
   33.2277,       291,
    33.248,       291,
   33.2682,       299,
   33.2884,       300,
   33.3086,       300,
   33.3288,       275,
    33.349,       243,
   33.3693,       277,
   33.3895,       285,
   33.4097,       315,
   33.4299,       298,
   33.4501,       286,
   33.4704,       308,
   33.4906,       282,
   33.5108,       304,
    33.531,       273,
   33.5512,       291,
   33.5715,       302,
   33.5917,       289,
   33.6119,       320,
   33.6321,       316,
   33.6523,       313,
   33.6725,       315,
   33.6928,       323,
    33.713,       308,
   33.7332,       315,
   33.7534,       289,
   33.7736,       323,
   33.7939,       305,
   33.8141,       336,
   33.8343,       251,
   33.8545,       303,
   33.8747,       243,
    33.895,       337,
   33.9152,       293,
   33.9354,       308,
   33.9556,       291,
   33.9758,       299,
    33.996,       338,
   34.0163,       326,
   34.0365,       345,
   34.0567,       344,
   34.0769,       401,
   34.0971,       409,
   34.1174,       429,
   34.1376,       438,
   34.1578,       509,
    34.178,       551,
   34.1982,       590,
   34.2185,       621,
   34.2387,       630,
   34.2589,       657,
   34.2791,       608,
   34.2993,       592,
   34.3195,       542,
   34.3398,       485,
     34.36,       456,
   34.3802,       413,
   34.4004,       377,
   34.4206,       348,
   34.4409,       348,
   34.4611,       354,
   34.4813,       354,
   34.5015,       342,
   34.5217,       350,
    34.542,       334,
   34.5622,       386,
   34.5824,       417,
   34.6026,       366,
   34.6228,       365,
    34.643,       403,
   34.6633,       362,
   34.6835,       390,
   34.7037,       368,
   34.7239,       388,
   34.7441,       373,
   34.7644,       389,
   34.7846,       361,
   34.8048,       384,
    34.825,       355,
   34.8452,       392,
   34.8655,       385,
   34.8857,       406,
   34.9059,       475,
   34.9261,       492,
   34.9463,       486,
   34.9665,       555,
   34.9868,       579,
    35.007,       601,
   35.0272,       677,
   35.0474,       643,
   35.0676,       691,
   35.0879,       751,
   35.1081,       682,
   35.1283,       685,
   35.1485,       713,
   35.1687,       722,
    35.189,       657,
   35.2092,       674,
   35.2294,       657,
   35.2496,       636,
   35.2698,       622,
     35.29,       649,
   35.3103,       681,
   35.3305,       604,
   35.3507,       631,
   35.3709,       657,
   35.3911,       681,
   35.4114,       674,
   35.4316,       689,
   35.4518,       675,
    35.472,       660,
   35.4922,       675,
   35.5125,       720,
   35.5327,       705,
   35.5529,       715,
   35.5731,       744,
   35.5933,       703,
   35.6135,       715,
   35.6338,       683,
    35.654,       744,
   35.6742,       796,
   35.6944,       767,
   35.7146,       769,
   35.7349,       795,
   35.7551,       746,
   35.7753,       754,
   35.7955,       753,
   35.8157,       772,
    35.836,       784,
   35.8562,       803,
   35.8764,       758,
   35.8966,       785,
   35.9168,       817,
    35.937,       753,
   35.9573,       772,
   35.9775,       748,
   35.9977,       760,
   36.0179,       758,
   36.0381,       651,
   36.0584,       701,
   36.0786,       643,
   36.0988,       658,
    36.119,       625,
   36.1392,       631,
   36.1595,       619,
   36.1797,       567,
   36.1999,       537,
   36.2201,       566,
   36.2403,       516,
   36.2605,       513,
   36.2808,       491,
    36.301,       471,
   36.3212,       422,
   36.3414,       407,
   36.3616,       434,
   36.3819,       465,
   36.4021,       468,
   36.4223,       438,
   36.4425,       485,
   36.4627,       526,
    36.483,       592,
   36.5032,       689,
   36.5234,       674,
   36.5436,       748,
   36.5638,       795,
    36.584,       700,
   36.6043,       890,
   36.6245,      1039,
   36.6447,       776,
   36.6649,       607,
   36.6851,       602,
   36.7054,       540,
   36.7256,       456,
   36.7458,       410,
    36.766,       398,
   36.7862,       358,
   36.8065,       385,
   36.8267,       349,
   36.8469,       311,
   36.8671,       355,
   36.8873,       326,
   36.9075,       355,
   36.9278,       334,
    36.948,       356,
   36.9682,       344,
   36.9884,       359,
   37.0086,       366,
   37.0289,       387,
   37.0491,       410,
   37.0693,       412,
   37.0895,       439,
   37.1097,       476,
     37.13,       536,
   37.1502,       603,
   37.1704,       791,
   37.1906,       873,
   37.2108,      1245,
    37.231,      1583,
   37.2513,      1889,
   37.2715,      2052,
   37.2917,      2009,
   37.3119,      1818,
   37.3321,      1729,
   37.3524,      1535,
   37.3726,      1315,
   37.3928,      1047,
    37.413,       857,
   37.4332,       712,
   37.4535,       606,
   37.4737,       494,
   37.4939,       490,
   37.5141,       363,
   37.5343,       393,
   37.5545,       355,
   37.5748,       370,
    37.595,       329,
   37.6152,       366,
   37.6354,       326,
   37.6556,       343,
   37.6759,       369,
   37.6961,       325,
   37.7163,       322,
   37.7365,       328,
   37.7567,       338,
    37.777,       310,
   37.7972,       316,
   37.8174,       297,
   37.8376,       320,
   37.8578,       323,
    37.878,       303,
   37.8983,       289,
   37.9185,       306,
   37.9387,       288,
   37.9589,       269,
   37.9791,       327,
   37.9994,       284,
   38.0196,       330,
   38.0398,       287,
     38.06,       312,
   38.0802,       315,
   38.1005,       288,
   38.1207,       303,
   38.1409,       331,
   38.1611,       319,
   38.1813,       348,
   38.2015,       363,
   38.2218,       318,
    38.242,       330,
   38.2622,       347,
   38.2824,       383,
   38.3026,       372,
   38.3229,       399,
   38.3431,       388,
   38.3633,       443,
   38.3835,       485,
   38.4037,       525,
    38.424,       672,
   38.4442,       722,
   38.4644,       748,
   38.4846,       768,
   38.5048,       816,
    38.525,       755,
   38.5453,       649,
   38.5655,       623,
   38.5857,       598,
   38.6059,       583,
   38.6261,       483,
   38.6464,       491,
   38.6666,       493,
   38.6868,       554,
    38.707,       568,
   38.7272,       615,
   38.7475,       615,
   38.7677,       757,
   38.7879,       880,
   38.8081,      1060,
   38.8283,      1381,
   38.8485,      1750,
   38.8688,      2134,
    38.889,      2682,
   38.9092,      2932,
   38.9294,      2890,
   38.9496,      2662,
   38.9699,      2363,
   38.9901,      2113,
   39.0103,      1742,
   39.0305,      1519,
   39.0507,      1126,
    39.071,       966,
   39.0912,       764,
   39.1114,       633,
   39.1316,       522,
   39.1518,       518,
    39.172,       553,
   39.1923,       563,
   39.2125,       574,
   39.2327,       511,
   39.2529,       481,
   39.2731,       498,
   39.2934,       466,
   39.3136,       426,
   39.3338,       391,
    39.354,       353,
   39.3742,       359,
   39.3945,       358,
   39.4147,       333,
   39.4349,       318,
   39.4551,       272,
   39.4753,       320,
   39.4955,       317,
   39.5158,       307,
    39.536,       297,
   39.5562,       297,
   39.5764,       312,
   39.5966,       302,
   39.6169,       281,
   39.6371,       280,
   39.6573,       256,
   39.6775,       304,
   39.6977,       248,
    39.718,       289,
   39.7382,       258,
   39.7584,       298,
   39.7786,       261,
   39.7988,       245,
    39.819,       259,
   39.8393,       270,
   39.8595,       235,
   39.8797,       277,
   39.8999,       251,
   39.9201,       270,
   39.9404,       269,
   39.9606,       275,
   39.9808,       271,
    40.001,       241,
   40.0212,       243,
   40.0415,       294,
   40.0617,       259,
   40.0819,       270,
   40.1021,       290,
   40.1223,       264,
   40.1425,       275,
   40.1628,       295,
    40.183,       299,
   40.2032,       298,
   40.2234,       286,
   40.2436,       284,
   40.2639,       274,
   40.2841,       271,
   40.3043,       266,
   40.3245,       279,
   40.3447,       267,
    40.365,       271,
   40.3852,       282,
   40.4054,       281,
   40.4256,       270,
   40.4458,       279,
    40.466,       276,
   40.4863,       276,
   40.5065,       284,
   40.5267,       283,
   40.5469,       263,
   40.5671,       268,
   40.5874,       281,
   40.6076,       271,
   40.6278,       295,
    40.648,       315,
   40.6682,       260,
   40.6885,       280,
   40.7087,       289,
   40.7289,       285,
   40.7491,       277,
   40.7693,       317,
   40.7895,       278,
   40.8098,       284,
     40.83,       280,
   40.8502,       263,
   40.8704,       290,
   40.8906,       261,
   40.9109,       253,
   40.9311,       295,
   40.9513,       291,
   40.9715,       298,
   40.9917,       274,
    41.012,       285,
   41.0322,       288,
   41.0524,       267,
   41.0726,       257,
   41.0928,       245,
   41.1131,       282,
   41.1333,       236,
   41.1535,       247,
   41.1737,       259,
   41.1939,       261,
   41.2141,       282,
   41.2344,       279,
   41.2546,       271,
   41.2748,       251,
    41.295,       264,
   41.3152,       258,
   41.3355,       237,
   41.3557,       256,
   41.3759,       245,
   41.3961,       296,
   41.4163,       298,
   41.4366,       251,
   41.4568,       292,
    41.477,       268,
   41.4972,       290,
   41.5174,       243,
   41.5376,       290,
   41.5579,       277,
   41.5781,       294,
   41.5983,       313,
   41.6185,       297,
   41.6387,       305,
    41.659,       322,
   41.6792,       287,
   41.6994,       300,
   41.7196,       289,
   41.7398,       330,
   41.7601,       275,
   41.7803,       285,
   41.8005,       282,
   41.8207,       274,
   41.8409,       278,
   41.8611,       273,
   41.8814,       269,
   41.9016,       293,
   41.9218,       289,
    41.942,       302,
   41.9622,       314,
   41.9825,       273,
   42.0027,       255,
   42.0229,       320,
   42.0431,       318,
   42.0633,       329,
   42.0836,       323,
   42.1038,       328,
    42.124,       346,
   42.1442,       331,
   42.1644,       377,
   42.1846,       370,
   42.2049,       392,
   42.2251,       434,
   42.2453,       454,
   42.2655,       519,
   42.2857,       577,
    42.306,       711,
   42.3262,       813,
   42.3464,      1026,
   42.3666,      1231,
   42.3868,      1508,
   42.4071,      1780,
   42.4273,      1718,
   42.4475,      1829,
   42.4677,      1824,
   42.4879,      1822,
   42.5081,      1918,
   42.5284,      1982,
   42.5486,      1775,
   42.5688,      1532,
    42.589,      1256,
   42.6092,      1006,
   42.6295,       978,
   42.6497,       854,
   42.6699,       680,
   42.6901,       581,
   42.7103,       517,
   42.7306,       435,
   42.7508,       425,
    42.771,       386,
   42.7912,       369,
   42.8114,       377,
   42.8316,       367,
   42.8519,       375,
   42.8721,       327,
   42.8923,       365,
   42.9125,       388,
   42.9327,       304,
    42.953,       380,
   42.9732,       365,
   42.9934,       351,
   43.0136,       316,
   43.0338,       361,
   43.0541,       317,
   43.0743,       318,
   43.0945,       338,
   43.1147,       344,
   43.1349,       297,
   43.1551,       326,
   43.1754,       308,
   43.1956,       339,
   43.2158,       304,
    43.236,       318,
   43.2562,       339,
   43.2765,       320,
   43.2967,       361,
   43.3169,       324,
   43.3371,       354,
   43.3573,       330,
   43.3776,       324,
   43.3978,       366,
    43.418,       310,
   43.4382,       363,
   43.4584,       342,
   43.4786,       363,
   43.4989,       382,
   43.5191,       364,
   43.5393,       380,
   43.5595,       390,
   43.5797,       353,
      43.6,       346,
   43.6202,       431,
   43.6404,       450,
   43.6606,       462,
   43.6808,       518,
   43.7011,       567,
   43.7213,       682,
   43.7415,       804,
   43.7617,       853,
   43.7819,       983,
   43.8021,      1041,
   43.8224,      1055,
   43.8426,       963,
   43.8628,       924,
    43.883,       832,
   43.9032,       797,
   43.9235,       694,
   43.9437,       589,
   43.9639,       522,
   43.9841,       487,
   44.0043,       422,
   44.0246,       387,
   44.0448,       418,
    44.065,       358,
   44.0852,       408,
   44.1054,       355,
   44.1256,       360,
   44.1459,       362,
   44.1661,       362,
   44.1863,       345,
   44.2065,       354,
   44.2267,       368,
    44.247,       369,
   44.2672,       380,
   44.2874,       395,
   44.3076,       428,
   44.3278,       473,
   44.3481,       494,
   44.3683,       543,
   44.3885,       596,
   44.4087,       756,
   44.4289,       907,
   44.4491,      1177,
   44.4694,      1518,
   44.4896,      1812,
   44.5098,      2103,
     44.53,      2236,
   44.5502,      2210,
   44.5705,      1972,
   44.5907,      1698,
   44.6109,      1543,
   44.6311,      1405,
   44.6513,      1245,
   44.6716,      1008,
   44.6918,       807,
    44.712,       680,
   44.7322,       520,
   44.7524,       518,
   44.7726,       432,
   44.7929,       438,
   44.8131,       477,
   44.8333,       412,
   44.8535,       433,
   44.8737,       443,
    44.894,       405,
   44.9142,       443,
   44.9344,       443,
   44.9546,       448,
   44.9748,       476,
   44.9951,       520,
   45.0153,       569,
   45.0355,       637,
   45.0557,       715,
   45.0759,       853,
   45.0961,      1019,
   45.1164,      1315,
   45.1366,      1484,
   45.1568,      1642,
    45.177,      1614,
   45.1972,      1524,
   45.2175,      1442,
   45.2377,      1323,
   45.2579,      1326,
   45.2781,      1238,
   45.2983,      1215,
   45.3186,      1172,
   45.3388,      1223,
    45.359,      1322,
   45.3792,      1286,
   45.3994,      1328,
   45.4196,      1247,
   45.4399,      1042,
   45.4601,       990,
   45.4803,       854,
   45.5005,       802,
   45.5207,       703,
    45.541,       585,
   45.5612,       485,
   45.5814,       436,
   45.6016,       378,
   45.6218,       376,
   45.6421,       359,
   45.6623,       356,
   45.6825,       304,
   45.7027,       330,
   45.7229,       300,
   45.7431,       291,
   45.7634,       268,
   45.7836,       274,
   45.8038,       280,
    45.824,       302,
   45.8442,       283,
   45.8645,       257,
   45.8847,       292,
   45.9049,       265,
   45.9251,       248,
   45.9453,       271,
   45.9656,       231,
   45.9858,       258,
    46.006,       230,
   46.0262,       256,
   46.0464,       228,
   46.0666,       262,
   46.0869,       219,
   46.1071,       209,
   46.1273,       223,
   46.1475,       224,
   46.1677,       240,
    46.188,       228,
   46.2082,       226,
   46.2284,       254,
   46.2486,       231,
   46.2688,       260,
   46.2891,       241,
   46.3093,       227,
   46.3295,       256,
   46.3497,       239,
   46.3699,       257,
   46.3901,       227,
   46.4104,       256,
   46.4306,       245,
   46.4508,       261,
    46.471,       234,
   46.4912,       270,
   46.5115,       238,
   46.5317,       246,
   46.5519,       235,
   46.5721,       230,
   46.5923,       225,
   46.6126,       241,
   46.6328,       280,
    46.653,       234,
   46.6732,       227,
   46.6934,       280,
   46.7136,       233,
   46.7339,       232,
   46.7541,       218,
   46.7743,       210,
   46.7945,       222,
   46.8147,       245,
    46.835,       252,
   46.8552,       268,
   46.8754,       238,
   46.8956,       267,
   46.9158,       245,
   46.9361,       247,
   46.9563,       274,
   46.9765,       294,
   46.9967,       285,
   47.0169,       271,
   47.0371,       277,
   47.0574,       271,
   47.0776,       249,
   47.0978,       296,
    47.118,       284,
   47.1382,       288,
   47.1585,       276,
   47.1787,       321,
   47.1989,       280,
   47.2191,       298,
   47.2393,       317,
   47.2596,       293,
   47.2798,       262,
      47.3,       303,
   47.3202,       300,
   47.3404,       320,
   47.3606,       276,
   47.3809,       305,
   47.4011,       309,
   47.4213,       286,
   47.4415,       286,
   47.4617,       314,
    47.482,       313,
   47.5022,       325,
   47.5224,       284,
   47.5426,       298,
   47.5628,       348,
   47.5831,       311,
   47.6033,       313,
   47.6235,       311,
   47.6437,       352,
   47.6639,       353,
   47.6841,       322,
   47.7044,       322,
   47.7246,       346,
   47.7448,       357,
    47.765,       360,
   47.7852,       357,
   47.8055,       373,
   47.8257,       407,
   47.8459,       394,
   47.8661,       382,
   47.8863,       393,
   47.9066,       364,
   47.9268,       391,
    47.947,       378,
   47.9672,       362,
   47.9874,       382,
   48.0076,       378,
   48.0279,       358,
   48.0481,       392,
   48.0683,       371,
   48.0885,       390,
   48.1087,       379,
    48.129,       353,
   48.1492,       375,
   48.1694,       353,
   48.1896,       374,
   48.2098,       364,
   48.2301,       347,
   48.2503,       333,
   48.2705,       396,
   48.2907,       375,
   48.3109,       395,
   48.3311,       425,
   48.3514,       475,
   48.3716,       545,
   48.3918,       653,
    48.412,       705,
   48.4322,       841,
   48.4525,       884,
   48.4727,       922,
   48.4929,       840,
   48.5131,       772,
   48.5333,       700,
   48.5536,       700,
   48.5738,       644,
    48.594,       680,
   48.6142,       526,
   48.6344,       486,
   48.6546,       409,
   48.6749,       370,
   48.6951,       351,
   48.7153,       299,
   48.7355,       287,
   48.7557,       288,
    48.776,       316,
   48.7962,       282,
   48.8164,       286,
   48.8366,       267,
   48.8568,       304,
   48.8771,       253,
   48.8973,       227,
   48.9175,       251,
   48.9377,       262,
   48.9579,       243,
   48.9781,       242,
   48.9984,       237,
   49.0186,       244,
   49.0388,       231,
    49.059,       228,
   49.0792,       244,
   49.0995,       214,
   49.1197,       208,
   49.1399,       208,
   49.1601,       248,
   49.1803,       226,
   49.2006,       240,
   49.2208,       221,
    49.241,       210,
   49.2612,       193,
   49.2814,       212,
   49.3016,       199,
   49.3219,       215,
   49.3421,       209,
   49.3623,       236,
   49.3825,       225,
   49.4027,       219,
    49.423,       249,
   49.4432,       203,
   49.4634,       186,
   49.4836,       217,
   49.5038,       225,
   49.5241,       211,
   49.5443,       231,
   49.5645,       249,
   49.5847,       196,
   49.6049,       225,
   49.6251,       227,
   49.6454,       217,
   49.6656,       224,
   49.6858,       234,
    49.706,       238,
   49.7262,       215,
   49.7465,       238,
   49.7667,       198,
   49.7869,       231,
   49.8071,       221,
   49.8273,       216,
   49.8476,       226,
   49.8678,       228,
    49.888,       207,
   49.9082,       205,
   49.9284,       216,
   49.9486,       234,
   49.9689,       231,
   49.9891,       243,
   50.0093,       226,
   50.0295,       231,
   50.0497,       224,
     50.07,       237,
   50.0902,       230,
   50.1104,       229,
   50.1306,       221,
   50.1508,       243,
   50.1711,       255,
   50.1913,       271,
   50.2115,       242,
   50.2317,       249,
   50.2519,       266,
   50.2721,       294,
   50.2924,       300,
   50.3126,       330,
   50.3328,       336,
    50.353,       344,
   50.3732,       404,
   50.3935,       467,
   50.4137,       557,
   50.4339,       693,
   50.4541,       907,
   50.4743,      1106,
   50.4946,      1237,
   50.5148,      1376,
    50.535,      1217,
   50.5552,      1088,
   50.5754,       956,
   50.5956,       878,
   50.6159,       871,
   50.6361,       772,
   50.6563,       708,
   50.6765,       573,
   50.6967,       477,
    50.717,       407,
   50.7372,       348,
   50.7574,       327,
   50.7776,       318,
   50.7978,       289,
   50.8181,       260,
   50.8383,       291,
   50.8585,       296,
   50.8787,       304,
   50.8989,       254,
   50.9191,       280,
   50.9394,       257,
   50.9596,       260,
   50.9798,       274,
        51,       271,
   51.0202,       276,
   51.0405,       266,
   51.0607,       292,
   51.0809,       261,
   51.1011,       286,
   51.1213,       269,
   51.1416,       287,
   51.1618,       281,
    51.182,       283,
   51.2022,       285,
   51.2224,       287,
   51.2426,       280,
   51.2629,       266,
   51.2831,       265,
   51.3033,       337,
   51.3235,       295,
   51.3437,       317,
    51.364,       313,
   51.3842,       312,
   51.4044,       287,
   51.4246,       292,
   51.4448,       254,
   51.4651,       279,
   51.4853,       279,
   51.5055,       256,
   51.5257,       287,
   51.5459,       272,
   51.5661,       281,
   51.5864,       272,
   51.6066,       247,
   51.6268,       280,
    51.647,       262,
   51.6672,       256,
   51.6875,       274,
   51.7077,       254,
   51.7279,       283,
   51.7481,       242,
   51.7683,       242,
   51.7886,       264,
   51.8088,       260,
    51.829,       263,
   51.8492,       263,
   51.8694,       262,
   51.8897,       252,
   51.9099,       246,
   51.9301,       241,
   51.9503,       253,
   51.9705,       234,
   51.9907,       262,
    52.011,       272,
   52.0312,       277,
   52.0514,       263,
   52.0716,       264,
   52.0918,       251,
   52.1121,       280,
   52.1323,       275,
   52.1525,       294,
   52.1727,       253,
   52.1929,       247,
   52.2132,       273,
   52.2334,       280,
   52.2536,       320,
   52.2738,       244,
    52.294,       278,
   52.3142,       289,
   52.3345,       282,
   52.3547,       281,
   52.3749,       273,
   52.3951,       265,
   52.4153,       303,
   52.4356,       264,
   52.4558,       286,
    52.476,       275,
   52.4962,       312,
   52.5164,       290,
   52.5367,       293,
   52.5569,       300,
   52.5771,       277,
   52.5973,       282,
   52.6175,       300,
   52.6377,       314,
    52.658,       272,
   52.6782,       270,
   52.6984,       280,
   52.7186,       283,
   52.7388,       274,
   52.7591,       271,
   52.7793,       310,
   52.7995,       281,
   52.8197,       274,
   52.8399,       257,
   52.8602,       266,
   52.8804,       250,
   52.9006,       270,
   52.9208,       257,
    52.941,       254,
   52.9612,       237,
   52.9815,       240,
   53.0017,       255,
   53.0219,       240,
   53.0421,       254,
   53.0623,       267,
   53.0826,       277,
   53.1028,       259,
    53.123,       270,
   53.1432,       272,
   53.1634,       292,
   53.1837,       306,
   53.2039,       283,
   53.2241,       304,
   53.2443,       307,
   53.2645,       349,
   53.2847,       349,
    53.305,       319,
   53.3252,       341,
   53.3454,       340,
   53.3656,       344,
   53.3858,       378,
   53.4061,       390,
   53.4263,       458,
   53.4465,       519,
   53.4667,       586,
   53.4869,       649,
   53.5072,       777,
   53.5274,       792,
   53.5476,       985,
   53.5678,      1079,
    53.588,      1108,
   53.6082,      1070,
   53.6285,      1007,
   53.6487,       924,
   53.6689,       920,
   53.6891,       932,
   53.7093,       886,
   53.7296,       799,
   53.7498,       768,
     53.77,       708,
   53.7902,       636,
   53.8104,       656,
   53.8307,       665,
   53.8509,       692,
   53.8711,       807,
   53.8913,       912,
   53.9115,      1184,
   53.9317,      1529,
    53.952,      1941,
   53.9722,      2520,
   53.9924,      3159,
   54.0126,      3612,
   54.0328,      3538,
   54.0531,      3219,
   54.0733,      2722,
   54.0935,      2414,
   54.1137,      2383,
   54.1339,      2261,
   54.1542,      2072,
   54.1744,      1834,
   54.1946,      1424,
   54.2148,      1059,
    54.235,       817,
   54.2552,       678,
   54.2755,       601,
   54.2957,       499,
   54.3159,       477,
   54.3361,       447,
   54.3563,       429,
   54.3766,       384,
   54.3968,       382,
    54.417,       341,
   54.4372,       320,
   54.4574,       313,
   54.4777,       286,
   54.4979,       312,
   54.5181,       296,
   54.5383,       292,
   54.5585,       273,
   54.5787,       272,
    54.599,       295,
   54.6192,       236,
   54.6394,       245,
   54.6596,       234,
   54.6798,       241,
   54.7001,       257,
   54.7203,       240,
   54.7405,       246,
   54.7607,       258,
   54.7809,       247,
   54.8012,       273,
   54.8214,       273,
   54.8416,       270,
   54.8618,       258,
    54.882,       232,
   54.9022,       227,
   54.9225,       219,
   54.9427,       258,
   54.9629,       223,
   54.9831,       212,
   55.0033,       212,
   55.0236,       233,
   55.0438,       215,
    55.064,       246,
   55.0842,       225,
   55.1044,       222,
   55.1247,       221,
   55.1449,       236,
   55.1651,       213,
   55.1853,       212,
   55.2055,       230,
   55.2257,       229,
    55.246,       199,
   55.2662,       193,
   55.2864,       214,
   55.3066,       202,
   55.3268,       191,
   55.3471,       215,
   55.3673,       215,
   55.3875,       198,
   55.4077,       218,
   55.4279,       223,
   55.4482,       187,
   55.4684,       246,
   55.4886,       251,
   55.5088,       248,
    55.529,       223,
   55.5492,       231,
   55.5695,       251,
   55.5897,       275,
   55.6099,       245,
   55.6301,       228,
   55.6503,       273,
   55.6706,       228,
   55.6908,       263,
    55.711,       241,
   55.7312,       253,
   55.7514,       229,
   55.7717,       210,
   55.7919,       253,
   55.8121,       208,
   55.8323,       218,
   55.8525,       213,
   55.8727,       219,
    55.893,       244,
   55.9132,       217,
   55.9334,       207,
   55.9536,       216,
   55.9738,       244,
   55.9941,       238,
   56.0143,       244,
   56.0345,       230,
   56.0547,       270,
   56.0749,       236,
   56.0952,       260,
   56.1154,       274,
   56.1356,       243,
   56.1558,       256,
    56.176,       271,
   56.1962,       258,
   56.2165,       282,
   56.2367,       258,
   56.2569,       267,
   56.2771,       268,
   56.2973,       307,
   56.3176,       303,
   56.3378,       367,
    56.358,       346,
   56.3782,       393,
   56.3984,       406,
   56.4187,       380,
   56.4389,       386,
   56.4591,       391,
   56.4793,       396,
   56.4995,       373,
   56.5197,       376,
     56.54,       369,
   56.5602,       366,
   56.5804,       403,
   56.6006,       394,
   56.6208,       398,
   56.6411,       393,
   56.6613,       408,
   56.6815,       376,
   56.7017,       415,
   56.7219,       425,
   56.7422,       443,
   56.7624,       442,
   56.7826,       481,
   56.8028,       574,
    56.823,       567,
   56.8432,       660,
   56.8635,       795,
   56.8837,      1074,
   56.9039,      1195,
   56.9241,      1402,
   56.9443,      1602,
   56.9646,      1619,
   56.9848,      1679,
    57.005,      1580,
   57.0252,      1598,
   57.0454,      1646,
   57.0657,      1639,
   57.0859,      1753,
   57.1061,      1810,
   57.1263,      1652,
   57.1465,      1473,
   57.1667,      1277,
    57.187,      1096,
   57.2072,       979,
   57.2274,       947,
   57.2476,       938,
   57.2678,       850,
   57.2881,       720,
   57.3083,       634,
   57.3285,       566,
   57.3487,       471,
   57.3689,       447,
   57.3892,       408,
   57.4094,       369,
   57.4296,       402,
   57.4498,       384,
     57.47,       359,
   57.4902,       338,
   57.5105,       338,
   57.5307,       348,
   57.5509,       352,
   57.5711,       340,
   57.5913,       304,
   57.6116,       318,
   57.6318,       348,
    57.652,       291,
   57.6722,       266,
   57.6924,       294,
   57.7127,       276,
   57.7329,       319,
   57.7531,       322,
   57.7733,       311,
   57.7935,       299,
   57.8137,       291,
    57.834,       272,
   57.8542,       309,
   57.8744,       286,
   57.8946,       323,
   57.9148,       287,
   57.9351,       294,
   57.9553,       297,
   57.9755,       298,
   57.9957,       285,
   58.0159,       325,
   58.0362,       296,
   58.0564,       309,
   58.0766,       347,
   58.0968,       311,
    58.117,       318,
   58.1372,       304,
   58.1575,       290,
   58.1777,       313,
   58.1979,       324,
   58.2181,       307,
   58.2383,       293,
   58.2586,       309,
   58.2788,       298,
    58.299,       287,
   58.3192,       304,
   58.3394,       291,
   58.3597,       292,
   58.3799,       264,
   58.4001,       294,
   58.4203,       286,
   58.4405,       299,
   58.4607,       302,
    58.481,       322,
   58.5012,       305,
   58.5214,       316,
   58.5416,       273,
   58.5618,       298,
   58.5821,       294,
   58.6023,       301,
   58.6225,       323,
   58.6427,       292,
   58.6629,       338,
   58.6832,       289,
   58.7034,       340,
   58.7236,       325,
   58.7438,       357,
    58.764,       358,
   58.7842,       369,
   58.8045,       387,
   58.8247,       390,
   58.8449,       383,
   58.8651,       401,
   58.8853,       413,
   58.9056,       409,
   58.9258,       394,
    58.946,       425,
   58.9662,       422,
   58.9864,       388,
   59.0067,       394,
   59.0269,       455,
   59.0471,       404,
   59.0673,       410,
   59.0875,       507,
   59.1077,       570,
    59.128,       612,
   59.1482,       743,
   59.1684,       863,
   59.1886,      1015,
   59.2088,      1237,
   59.2291,      1406,
   59.2493,      1426,
   59.2695,      1446,
   59.2897,      1384,
   59.3099,      1218,
   59.3302,      1138,
   59.3504,      1057,
   59.3706,      1058,
   59.3908,      1033,
    59.411,       946,
   59.4312,       812,
   59.4515,       754,
   59.4717,       583,
   59.4919,       520,
   59.5121,       481,
   59.5323,       435,
   59.5526,       401,
   59.5728,       419,
    59.593,       369,
   59.6132,       354,
   59.6334,       374,
   59.6537,       364,
   59.6739,       327,
   59.6941,       339,
   59.7143,       325,
   59.7345,       286,
   59.7547,       288,
    59.775,       309,
   59.7952,       286,
   59.8154,       255,
   59.8356,       271,
   59.8558,       263,
   59.8761,       286,
   59.8963,       247,
   59.9165,       244,
   59.9367,       270,
   59.9569,       267,
   59.9772,       245,
   59.9974,       252,
   60.0176,       231,
   60.0378,       236,
    60.058,       236,
   60.0782,       219,
   60.0985,       226,
   60.1187,       238,
   60.1389,       243,
   60.1591,       242,
   60.1793,       231,
   60.1996,       208,
   60.2198,       250,
     60.24,       223,
   60.2602,       231,
   60.2804,       221,
   60.3007,       228,
   60.3209,       219,
   60.3411,       224,
   60.3613,       238,
   60.3815,       236,
   60.4017,       250,
    60.422,       226,
   60.4422,       212,
   60.4624,       211,
   60.4826,       230,
   60.5028,       240,
   60.5231,       226,
   60.5433,       223,
   60.5635,       210,
   60.5837,       207,
   60.6039,       207,
   60.6242,       211,
   60.6444,       215,
   60.6646,       219,
   60.6848,       252,
    60.705,       202,
   60.7252,       216,
   60.7455,       221,
   60.7657,       199,
   60.7859,       224,
   60.8061,       206,
   60.8263,       197,
   60.8466,       202,
   60.8668,       202,
    60.887,       209,
   60.9072,       203,
   60.9274,       225,
   60.9477,       194,
   60.9679,       188,
   60.9881,       215,
   61.0083,       196,
   61.0285,       201,
   61.0487,       204,
    61.069,       233,
   61.0892,       211,
   61.1094,       201,
   61.1296,       213,
   61.1498,       243,
   61.1701,       222,
   61.1903,       209,
   61.2105,       228,
   61.2307,       294,
   61.2509,       303,
   61.2712,       322,
   61.2914,       329,
   61.3116,       318,
   61.3318,       300,
    61.352,       325,
   61.3722,       280,
   61.3925,       280,
   61.4127,       301,
   61.4329,       303,
   61.4531,       284,
   61.4733,       270,
   61.4936,       278,
   61.5138,       258,
    61.534,       277,
   61.5542,       233,
   61.5744,       270,
   61.5947,       268,
   61.6149,       272,
   61.6351,       253,
   61.6553,       270,
   61.6755,       287,
   61.6957,       310,
    61.716,       319,
   61.7362,       302,
   61.7564,       389,
   61.7766,       428,
   61.7968,       521,
   61.8171,       654,
   61.8373,       803,
   61.8575,       910,
   61.8777,      1147,
   61.8979,      1241,
   61.9182,      1369,
   61.9384,      1390,
   61.9586,      1266,
   61.9788,      1147,
    61.999,      1045,
   62.0192,       952,
   62.0395,       940,
   62.0597,       959,
   62.0799,       835,
   62.1001,       797,
   62.1203,       714,
   62.1406,       609,
   62.1608,       517,
    62.181,       447,
   62.2012,       415,
   62.2214,       355,
   62.2417,       365,
   62.2619,       361,
   62.2821,       342,
   62.3023,       346,
   62.3225,       321,
   62.3427,       333,
    62.363,       345,
   62.3832,       347,
   62.4034,       396,
   62.4236,       445,
   62.4438,       450,
   62.4641,       522,
   62.4843,       623,
   62.5045,       673,
   62.5247,       802,
   62.5449,       815,
   62.5652,       834,
   62.5854,       816,
   62.6056,       866,
   62.6258,       835,
    62.646,       839,
   62.6663,       777,
   62.6865,       691,
   62.7067,       632,
   62.7269,       638,
   62.7471,       570,
   62.7673,       542,
   62.7876,       497,
   62.8078,       407,
    62.828,       406,
   62.8482,       312,
   62.8684,       306,
   62.8887,       262,
   62.9089,       244,
   62.9291,       241,
   62.9493,       227,
   62.9695,       232,
   62.9898,       236,
     63.01,       192,
   63.0302,       225,
   63.0504,       203,
   63.0706,       205,
   63.0908,       181,
   63.1111,       212,
   63.1313,       202,
   63.1515,       188,
   63.1717,       178,
   63.1919,       173,
   63.2122,       179,
   63.2324,       170,
   63.2526,       169,
   63.2728,       173,
    63.293,       188,
   63.3133,       169,
   63.3335,       170,
   63.3537,       174,
   63.3739,       202,
   63.3941,       181,
   63.4143,       177,
   63.4346,       170,
   63.4548,       177,
    63.475,       178,
   63.4952,       170,
   63.5154,       178,
   63.5357,       189,
   63.5559,       176,
   63.5761,       182,
   63.5963,       184,
   63.6165,       160,
   63.6368,       196,
    63.657,       218,
   63.6772,       214,
   63.6974,       251,
   63.7176,       246,
   63.7378,       263,
   63.7581,       299,
   63.7783,       293,
   63.7985,       266,
   63.8187,       234,
   63.8389,       254,
   63.8592,       233,
   63.8794,       218,
   63.8996,       243,
   63.9198,       242,
     63.94,       190,
   63.9603,       217,
   63.9805,       199,
   64.0007,       193,
   64.0209,       171,
   64.0411,       173,
   64.0613,       188,
   64.0816,       174,
   64.1018,       171,
    64.122,       153,
   64.1422,       139,
   64.1624,       167,
   64.1827,       162,
   64.2029,       149,
   64.2231,       154,
   64.2433,       165,
   64.2635,       179,
   64.2838,       152,
    64.304,       152,
   64.3242,       184,
   64.3444,       173,
   64.3646,       171,
   64.3848,       152,
   64.4051,       147,
   64.4253,       180,
   64.4455,       189,
   64.4657,       183,
   64.4859,       172,
   64.5062,       188,
   64.5264,       162,
   64.5466,       152,
   64.5668,       144,
    64.587,       162,
   64.6073,       160,
   64.6275,       166,
   64.6477,       168,
   64.6679,       153,
   64.6881,       144,
   64.7083,       155,
   64.7286,       148,
   64.7488,       160,
    64.769,       163,
   64.7892,       145,
   64.8094,       133,
   64.8297,       172,
   64.8499,       157,
   64.8701,       146,
   64.8903,       158,
   64.9105,       141,
   64.9308,       146,
    64.951,       156,
   64.9712,       148,
   64.9914,       147,
   65.0116,       159,
   65.0318,       143,
   65.0521,       140,
   65.0723,       160,
   65.0925,       123,
   65.1127,       144,
   65.1329,       172,
   65.1532,       162,
   65.1734,       163,
   65.1936,       164,
   65.2138,       146,
    65.234,       169,
   65.2543,       180,
   65.2745,       199,
   65.2947,       161,
   65.3149,       158,
   65.3351,       173,
   65.3553,       191,
   65.3756,       171,
   65.3958,       159,
    65.416,       182,
   65.4362,       147,
   65.4564,       166,
   65.4767,       159,
   65.4969,       143,
   65.5171,       155,
   65.5373,       145,
   65.5575,       148,
   65.5778,       152,
    65.598,       141,
   65.6182,       153,
   65.6384,       150,
   65.6586,       164,
   65.6788,       166,
   65.6991,       149,
   65.7193,       161,
   65.7395,       173,
   65.7597,       154,
   65.7799,       163,
   65.8002,       156,
   65.8204,       143,
   65.8406,       154,
   65.8608,       151,
    65.881,       148,
   65.9013,       149,
   65.9215,       151,
   65.9417,       150,
   65.9619,       140,
   65.9821,       154,
   66.0023,       143,
   66.0226,       177,
   66.0428,       158,
    66.063,       152,
   66.0832,       164,
   66.1034,       161,
   66.1237,       170,
   66.1439,       176,
   66.1641,       156,
   66.1843,       170,
   66.2045,       173,
   66.2248,       174,
    66.245,       205,
   66.2652,       181,
   66.2854,       195,
   66.3056,       191,
   66.3258,       205,
   66.3461,       246,
   66.3663,       233,
   66.3865,       239,
   66.4067,       230,
   66.4269,       287,
   66.4472,       242,
   66.4674,       299,
   66.4876,       270,
   66.5078,       233,
    66.528,       200,
   66.5483,       230,
   66.5685,       212,
   66.5887,       210,
   66.6089,       233,
   66.6291,       231,
   66.6493,       243,
   66.6696,       259,
   66.6898,       213,
     66.71,       228,
   66.7302,       220,
   66.7504,       235,
   66.7707,       259,
   66.7909,       266,
   66.8111,       281,
   66.8313,       286,
   66.8515,       300,
   66.8718,       265,
    66.892,       269,
   66.9122,       289,
   66.9324,       264,
   66.9526,       267,
   66.9728,       244,
   66.9931,       271,
   67.0133,       248,
   67.0335,       240,
   67.0537,       264,
   67.0739,       253,
   67.0942,       225,
   67.1144,       225,
   67.1346,       228,
   67.1548,       284,
    67.175,       308,
   67.1953,       316,
   67.2155,       343,
   67.2357,       378,
   67.2559,       357,
   67.2761,       333,
   67.2963,       336,
   67.3166,       270,
   67.3368,       268,
    67.357,       260,
   67.3772,       273,
   67.3974,       285,
   67.4177,       257,
   67.4379,       238,
   67.4581,       225,
   67.4783,       224,
   67.4985,       203,
   67.5188,       187,
    67.539,       175,
   67.5592,       156,
   67.5794,       174,
   67.5996,       182,
   67.6198,       178,
   67.6401,       160,
   67.6603,       158,
   67.6805,       148,
   67.7007,       152,
   67.7209,       166,
   67.7412,       139,
   67.7614,       157,
   67.7816,       150,
   67.8018,       167,
    67.822,       174,
   67.8423,       156,
   67.8625,       146,
   67.8827,       162,
   67.9029,       161,
   67.9231,       150,
   67.9433,       145,
   67.9636,       136,
   67.9838,       172,
    68.004,       161,
   68.0242,       152,
   68.0444,       166,
   68.0647,       165,
   68.0849,       174,
   68.1051,       177,
   68.1253,       179,
   68.1455,       183,
   68.1658,       204,
    68.186,       190,
   68.2062,       180,
   68.2264,       189,
   68.2466,       176,
   68.2668,       161,
   68.2871,       173,
   68.3073,       169,
   68.3275,       170,
   68.3477,       177,
   68.3679,       175,
   68.3882,       151,
   68.4084,       175,
   68.4286,       146,
   68.4488,       186,
    68.469,       166,
   68.4893,       161,
   68.5095,       150,
   68.5297,       151,
   68.5499,       139,
   68.5701,       152,
   68.5903,       150,
   68.6106,       146,
   68.6308,       144,
    68.651,       132,
   68.6712,       153,
   68.6914,       162,
   68.7117,       162,
   68.7319,       163,
   68.7521,       182,
   68.7723,       149,
   68.7925,       153,
   68.8128,       169,
    68.833,       178,
   68.8532,       162,
   68.8734,       162,
   68.8936,       175,
   68.9138,       199,
   68.9341,       182,
   68.9543,       162,
   68.9745,       182,
   68.9947,       196,
   69.0149,       153,
   69.0352,       172,
   69.0554,       164,
   69.0756,       188,
   69.0958,       183,
    69.116,       154,
   69.1363,       164,
   69.1565,       171,
   69.1767,       212,
   69.1969,       158,
   69.2171,       174,
   69.2373,       159,
   69.2576,       161,
   69.2778,       171,
    69.298,       176,
   69.3182,       172,
   69.3384,       154,
   69.3587,       182,
   69.3789,       154,
   69.3991,       186,
   69.4193,       170,
   69.4395,       155,
   69.4598,       168,
     69.48,       176,
   69.5002,       176,
   69.5204,       176,
   69.5406,       178,
   69.5608,       177,
   69.5811,       155,
   69.6013,       197,
   69.6215,       186,
   69.6417,       176,
   69.6619,       163,
   69.6822,       188,
   69.7024,       162,
   69.7226,       194,
   69.7428,       189,
    69.763,       169,
   69.7833,       163,
   69.8035,       180,
   69.8237,       183,
   69.8439,       193,
   69.8641,       171,
   69.8843,       189,
   69.9046,       182,
   69.9248,       181,
    69.945,       178,
   69.9652,       195,
   69.9854,       169,
   70.0057,       230,
