;RAW4.00
[RawHeader]
Date=11/19/2019
EstimatedTotalTime=1741.86
FurtherDQLReading=0
HardwareIndicator=65519
MeasuredTotalTime=1741.86
MeasurementFlag=1
NumberOfMeasuredRanges=1
NumberOfRanges=1
Time=19:13:01

[VarInfo]
Type=USER
Flags=0
Value=Bruker Service

[VarInfo]
Type=SAMPLEID
Flags=0
Value=Commander Sample ID

[VarInfo]
Type=COMMENT
Flags=0
Value=

[VarInfo]
Type=UTF
Flags=0
Value=

[VarInfo]
Type=CREATOR
Flags=0
Value=BrmlToV4Converter

[VarInfo]
Type=CREATOR_VERSION
Flags=0
Value=7.3.0.0

[HardwareConfiguration]
AbsorptionFactor=9999
ActivateAbsorber=0
Alpha1=1.78897
Alpha2=1.79285
AlphaAverage=1.79026
AlphaRatio=0.5
Analyzer=0
Anode=Co
AntiScatteringSlit=9999
BeamOpticsFlags=0
Beta=1.62079
BetaRelativeIntensity=0
DeactivateAbsorber=0
DetectorSlit=9999
DivergenceSlit=1
GoniometerControl=0
GoniometerDiameter=282
GoniometerModel=256
GoniometerStage=7
Monochromator=0
NearSampleSlit=9999
PrimarySollerSlit=9999
SampleChanger=0
SecondSollerSlit=9999
SynchronousAxis=0
ThinFilmAttachment=9999
WaveUnit=A

[RangeHeader]
ActuallyUsedLambda=1.79026
AdditionalDetectorMask=257
DataRecordLength=4
DelayTime=0
DisplayPlaneNumber=0
EstimatedScanTime=1742
ExtraParametersMask=0
GeneratorCurrent=10
GeneratorVoltage=30
Increment=0.0202188
Increment3=0
NumberOfCompletedData=3216
NumberOfCounts=1
NumberOfDetectors=0
NumberOfDrives=2
NumberOfEncoderDrives=0
NumberOfMeasuredData=3216
NumberOfVaryingParameters=0
RangeStartTime=0
RotationSpeed=1
ScanMode=1
ScanType=Locked Coupled
SimulatedMeasConditions=0
SlitChangerIn=0
SmootingWidth=0
Start=5.00234
Steps=3216
SynchronousRotation=0
Time=82.5

[VarInfo]
Type=PSD_DISCRIM
Flags=0
Value=0.11;0.25

[PSD]
ActualTwoTheta=9999
FirstUsedChannel=0
FixedPSD=0
PSDOpening=5.00414
PSDType=5

[Drive]
DriveFlags=1
DriveName=2Theta
DriveNumber=2
DriveOffset=0
OffsetIndex=0
OscillationAmplitude=0
OscillationSpeed=0
StartPosition=5.00234

[Drive]
DriveFlags=1
DriveName=Theta
DriveNumber=1
DriveOffset=0
OffsetIndex=0
OscillationAmplitude=0
OscillationSpeed=0
StartPosition=2.50117

[Data]
     Angle,       PSD,
   5.00234,      3729,
   5.02256,      3895,
   5.04278,      3865,
     5.063,      3854,
   5.08322,      3803,
   5.10344,      3700,
   5.12365,      3671,
   5.14387,      3541,
   5.16409,      3664,
   5.18431,      3548,
   5.20453,      3649,
   5.22475,      3419,
   5.24497,      3378,
   5.26519,      3511,
    5.2854,      3295,
   5.30562,      3308,
   5.32584,      3189,
   5.34606,      3254,
   5.36628,      3184,
    5.3865,      3230,
   5.40672,      3284,
   5.42694,      3173,
   5.44715,      3213,
   5.46737,      3205,
   5.48759,      3011,
   5.50781,      3046,
   5.52803,      3098,
   5.54825,      2945,
   5.56847,      2932,
   5.58869,      2921,
    5.6089,      2879,
   5.62912,      2754,
   5.64934,      2827,
   5.66956,      2845,
   5.68978,      2685,
      5.71,      2780,
   5.73022,      2703,
   5.75044,      2700,
   5.77065,      2828,
   5.79087,      2637,
   5.81109,      2647,
   5.83131,      2575,
   5.85153,      2691,
   5.87175,      2563,
   5.89197,      2543,
   5.91219,      2556,
    5.9324,      2444,
   5.95262,      2512,
   5.97284,      2488,
   5.99306,      2536,
   6.01328,      2467,
    6.0335,      2379,
   6.05372,      2455,
   6.07394,      2391,
   6.09415,      2355,
   6.11437,      2299,
   6.13459,      2277,
   6.15481,      2250,
   6.17503,      2252,
   6.19525,      2283,
   6.21547,      2329,
   6.23569,      2160,
    6.2559,      2124,
   6.27612,      2045,
   6.29634,      2131,
   6.31656,      2065,
   6.33678,      1975,
     6.357,      2027,
   6.37722,      1990,
   6.39744,      1892,
   6.41765,      1988,
   6.43787,      1971,
   6.45809,      1896,
   6.47831,      1927,
   6.49853,      1932,
   6.51875,      1892,
   6.53897,      1914,
   6.55919,      1820,
    6.5794,      1849,
   6.59962,      1870,
   6.61984,      1762,
   6.64006,      1802,
   6.66028,      1791,
    6.6805,      1720,
   6.70072,      1744,
   6.72094,      1837,
   6.74116,      1696,
   6.76137,      1685,
   6.78159,      1627,
   6.80181,      1700,
   6.82203,      1640,
   6.84225,      1695,
   6.86247,      1612,
   6.88269,      1675,
   6.90291,      1625,
   6.92312,      1705,
   6.94334,      1560,
   6.96356,      1528,
   6.98378,      1639,
     7.004,      1607,
   7.02422,      1632,
   7.04444,      1534,
   7.06466,      1539,
   7.08487,      1520,
   7.10509,      1521,
   7.12531,      1475,
   7.14553,      1537,
   7.16575,      1471,
   7.18597,      1411,
   7.20619,      1407,
   7.22641,      1415,
   7.24662,      1440,
   7.26684,      1378,
   7.28706,      1475,
   7.30728,      1386,
    7.3275,      1422,
   7.34772,      1393,
   7.36794,      1475,
   7.38816,      1325,
   7.40837,      1317,
   7.42859,      1356,
   7.44881,      1337,
   7.46903,      1291,
   7.48925,      1309,
   7.50947,      1270,
   7.52969,      1359,
   7.54991,      1334,
   7.57012,      1319,
   7.59034,      1262,
   7.61056,      1253,
   7.63078,      1193,
     7.651,      1305,
   7.67122,      1208,
   7.69144,      1201,
   7.71166,      1156,
   7.73187,      1190,
   7.75209,      1187,
   7.77231,      1232,
   7.79253,      1206,
   7.81275,      1149,
   7.83297,      1162,
   7.85319,      1201,
   7.87341,      1234,
   7.89362,      1142,
   7.91384,      1187,
   7.93406,      1170,
   7.95428,      1099,
    7.9745,      1058,
   7.99472,      1105,
   8.01494,      1088,
   8.03516,      1089,
   8.05537,      1116,
   8.07559,      1066,
   8.09581,      1060,
   8.11603,       977,
   8.13625,      1032,
   8.15647,      1006,
   8.17669,       997,
   8.19691,      1021,
   8.21712,       962,
   8.23734,      1004,
   8.25756,       968,
   8.27778,      1010,
     8.298,       968,
   8.31822,       942,
   8.33844,       989,
   8.35866,       996,
   8.37887,       927,
   8.39909,       929,
   8.41931,       974,
   8.43953,       954,
   8.45975,       969,
   8.47997,       920,
   8.50019,       913,
   8.52041,       928,
   8.54062,       887,
   8.56084,       959,
   8.58106,       914,
   8.60128,       877,
    8.6215,       906,
   8.64172,       898,
   8.66194,       857,
   8.68216,       862,
   8.70237,       848,
   8.72259,       878,
   8.74281,       833,
   8.76303,       882,
   8.78325,       862,
   8.80347,       878,
   8.82369,       892,
   8.84391,       840,
   8.86413,       877,
   8.88434,       826,
   8.90456,       854,
   8.92478,       770,
     8.945,       781,
   8.96522,       808,
   8.98544,       836,
   9.00566,       778,
   9.02588,       809,
   9.04609,       823,
   9.06631,       771,
   9.08653,       802,
   9.10675,       771,
   9.12697,       765,
   9.14719,       857,
   9.16741,       742,
   9.18763,       782,
   9.20784,       814,
   9.22806,       760,
   9.24828,       766,
    9.2685,       782,
   9.28872,       733,
   9.30894,       715,
   9.32916,       749,
   9.34938,       760,
   9.36959,       762,
   9.38981,       771,
   9.41003,       755,
   9.43025,       760,
   9.45047,       740,
   9.47069,       704,
   9.49091,       744,
   9.51113,       757,
   9.53134,       704,
   9.55156,       714,
   9.57178,       726,
     9.592,       688,
   9.61222,       740,
   9.63244,       722,
   9.65266,       755,
   9.67288,       709,
   9.69309,       723,
   9.71331,       690,
   9.73353,       704,
   9.75375,       714,
   9.77397,       705,
   9.79419,       691,
   9.81441,       657,
   9.83463,       660,
   9.85484,       715,
   9.87506,       715,
   9.89528,       695,
    9.9155,       703,
   9.93572,       672,
   9.95594,       702,
   9.97616,       705,
   9.99638,       699,
   10.0166,       670,
   10.0368,       732,
    10.057,       676,
   10.0773,       723,
   10.0975,       700,
   10.1177,       687,
   10.1379,       678,
   10.1581,       706,
   10.1783,       656,
   10.1986,       666,
   10.2188,       661,
    10.239,       675,
   10.2592,       613,
   10.2794,       654,
   10.2997,       654,
   10.3199,       668,
   10.3401,       705,
   10.3603,       665,
   10.3805,       685,
   10.4008,       686,
    10.421,       670,
   10.4412,       668,
   10.4614,       644,
   10.4816,       710,
   10.5018,       612,
   10.5221,       638,
   10.5423,       646,
   10.5625,       659,
   10.5827,       698,
   10.6029,       675,
   10.6232,       625,
   10.6434,       669,
   10.6636,       627,
   10.6838,       633,
    10.704,       652,
   10.7243,       642,
   10.7445,       683,
   10.7647,       692,
   10.7849,       612,
   10.8051,       645,
   10.8253,       628,
   10.8456,       609,
   10.8658,       623,
    10.886,       650,
   10.9062,       604,
   10.9264,       590,
   10.9467,       625,
   10.9669,       645,
   10.9871,       675,
   11.0073,       614,
   11.0275,       634,
   11.0478,       692,
    11.068,       587,
   11.0882,       624,
   11.1084,       644,
   11.1286,       617,
   11.1488,       622,
   11.1691,       631,
   11.1893,       632,
   11.2095,       604,
   11.2297,       634,
   11.2499,       576,
   11.2702,       655,
   11.2904,       606,
   11.3106,       622,
   11.3308,       616,
    11.351,       632,
   11.3713,       648,
   11.3915,       572,
   11.4117,       587,
   11.4319,       617,
   11.4521,       638,
   11.4723,       644,
   11.4926,       589,
   11.5128,       574,
    11.533,       634,
   11.5532,       606,
   11.5734,       672,
   11.5937,       595,
   11.6139,       610,
   11.6341,       574,
   11.6543,       597,
   11.6745,       626,
   11.6948,       653,
    11.715,       599,
   11.7352,       609,
   11.7554,       597,
   11.7756,       595,
   11.7958,       573,
   11.8161,       583,
   11.8363,       645,
   11.8565,       624,
   11.8767,       560,
   11.8969,       600,
   11.9172,       638,
   11.9374,       576,
   11.9576,       573,
   11.9778,       599,
    11.998,       629,
   12.0183,       649,
   12.0385,       578,
   12.0587,       599,
   12.0789,       560,
   12.0991,       607,
   12.1193,       605,
   12.1396,       573,
   12.1598,       567,
     12.18,       647,
   12.2002,       646,
   12.2204,       593,
   12.2407,       588,
   12.2609,       571,
   12.2811,       608,
   12.3013,       598,
   12.3215,       619,
   12.3418,       601,
    12.362,       588,
   12.3822,       562,
   12.4024,       552,
   12.4226,       597,
   12.4428,       589,
   12.4631,       613,
   12.4833,       599,
   12.5035,       572,
   12.5237,       595,
   12.5439,       576,
   12.5642,       624,
   12.5844,       596,
   12.6046,       566,
   12.6248,       609,
    12.645,       540,
   12.6653,       640,
   12.6855,       604,
   12.7057,       544,
   12.7259,       622,
   12.7461,       564,
   12.7663,       525,
   12.7866,       623,
   12.8068,       615,
    12.827,       600,
   12.8472,       588,
   12.8674,       566,
   12.8877,       534,
   12.9079,       572,
   12.9281,       563,
   12.9483,       579,
   12.9685,       535,
   12.9888,       538,
    13.009,       578,
   13.0292,       605,
   13.0494,       573,
   13.0696,       562,
   13.0898,       557,
   13.1101,       550,
   13.1303,       561,
   13.1505,       621,
   13.1707,       512,
   13.1909,       573,
   13.2112,       554,
   13.2314,       574,
   13.2516,       562,
   13.2718,       545,
    13.292,       546,
   13.3123,       578,
   13.3325,       529,
   13.3527,       581,
   13.3729,       503,
   13.3931,       524,
   13.4133,       593,
   13.4336,       578,
   13.4538,       590,
    13.474,       601,
   13.4942,       575,
   13.5144,       521,
   13.5347,       568,
   13.5549,       602,
   13.5751,       592,
   13.5953,       579,
   13.6155,       587,
   13.6358,       607,
    13.656,       577,
   13.6762,       588,
   13.6964,       576,
   13.7166,       606,
   13.7368,       552,
   13.7571,       542,
   13.7773,       611,
   13.7975,       541,
   13.8177,       568,
   13.8379,       541,
   13.8582,       553,
   13.8784,       540,
   13.8986,       577,
   13.9188,       554,
    13.939,       608,
   13.9593,       550,
   13.9795,       560,
   13.9997,       497,
   14.0199,       577,
   14.0401,       515,
   14.0603,       514,
   14.0806,       558,
   14.1008,       566,
    14.121,       581,
   14.1412,       540,
   14.1614,       542,
   14.1817,       522,
   14.2019,       588,
   14.2221,       577,
   14.2423,       571,
   14.2625,       556,
   14.2828,       580,
    14.303,       547,
   14.3232,       547,
   14.3434,       576,
   14.3636,       560,
   14.3838,       562,
   14.4041,       545,
   14.4243,       566,
   14.4445,       500,
   14.4647,       514,
   14.4849,       503,
   14.5052,       517,
   14.5254,       560,
   14.5456,       505,
   14.5658,       517,
    14.586,       550,
   14.6063,       542,
   14.6265,       555,
   14.6467,       521,
   14.6669,       564,
   14.6871,       552,
   14.7073,       581,
   14.7276,       532,
   14.7478,       515,
    14.768,       527,
   14.7882,       505,
   14.8084,       560,
   14.8287,       575,
   14.8489,       466,
   14.8691,       483,
   14.8893,       488,
   14.9095,       484,
   14.9298,       539,
     14.95,       503,
   14.9702,       523,
   14.9904,       499,
   15.0106,       504,
   15.0308,       584,
   15.0511,       514,
   15.0713,       491,
   15.0915,       510,
   15.1117,       546,
   15.1319,       539,
   15.1522,       542,
   15.1724,       550,
   15.1926,       535,
   15.2128,       509,
    15.233,       501,
   15.2533,       499,
   15.2735,       492,
   15.2937,       548,
   15.3139,       558,
   15.3341,       514,
   15.3543,       539,
   15.3746,       535,
   15.3948,       520,
    15.415,       524,
   15.4352,       515,
   15.4554,       485,
   15.4757,       521,
   15.4959,       512,
   15.5161,       481,
   15.5363,       467,
   15.5565,       530,
   15.5768,       516,
    15.597,       499,
   15.6172,       522,
   15.6374,       499,
   15.6576,       512,
   15.6778,       478,
   15.6981,       468,
   15.7183,       472,
   15.7385,       500,
   15.7587,       496,
   15.7789,       480,
   15.7992,       484,
   15.8194,       497,
   15.8396,       528,
   15.8598,       491,
     15.88,       522,
   15.9003,       465,
   15.9205,       530,
   15.9407,       476,
   15.9609,       480,
   15.9811,       458,
   16.0013,       500,
   16.0216,       467,
   16.0418,       488,
    16.062,       540,
   16.0822,       484,
   16.1024,       488,
   16.1227,       489,
   16.1429,       497,
   16.1631,       471,
   16.1833,       442,
   16.2035,       471,
   16.2238,       496,
    16.244,       464,
   16.2642,       519,
   16.2844,       477,
   16.3046,       535,
   16.3248,       504,
   16.3451,       501,
   16.3653,       503,
   16.3855,       493,
   16.4057,       465,
   16.4259,       497,
   16.4462,       519,
   16.4664,       476,
   16.4866,       500,
   16.5068,       495,
    16.527,       469,
   16.5473,       444,
   16.5675,       427,
   16.5877,       464,
   16.6079,       467,
   16.6281,       488,
   16.6483,       431,
   16.6686,       476,
   16.6888,       474,
    16.709,       492,
   16.7292,       486,
   16.7494,       516,
   16.7697,       506,
   16.7899,       532,
   16.8101,       546,
   16.8303,       510,
   16.8505,       517,
   16.8708,       467,
    16.891,       504,
   16.9112,       446,
   16.9314,       509,
   16.9516,       422,
   16.9718,       503,
   16.9921,       474,
   17.0123,       455,
   17.0325,       481,
   17.0527,       477,
   17.0729,       487,
   17.0932,       520,
   17.1134,       455,
   17.1336,       497,
   17.1538,       513,
    17.174,       539,
   17.1943,       572,
   17.2145,       552,
   17.2347,       598,
   17.2549,       550,
   17.2751,       561,
   17.2953,       550,
   17.3156,       527,
   17.3358,       483,
    17.356,       444,
   17.3762,       520,
   17.3964,       478,
   17.4167,       484,
   17.4369,       492,
   17.4571,       452,
   17.4773,       461,
   17.4975,       469,
   17.5178,       463,
    17.538,       466,
   17.5582,       476,
   17.5784,       483,
   17.5986,       503,
   17.6188,       497,
   17.6391,       487,
   17.6593,       472,
   17.6795,       476,
   17.6997,       468,
   17.7199,       491,
   17.7402,       436,
   17.7604,       514,
   17.7806,       499,
   17.8008,       428,
    17.821,       456,
   17.8413,       478,
   17.8615,       402,
   17.8817,       456,
   17.9019,       476,
   17.9221,       427,
   17.9423,       472,
   17.9626,       430,
   17.9828,       449,
    18.003,       443,
   18.0232,       465,
   18.0434,       482,
   18.0637,       460,
   18.0839,       430,
   18.1041,       444,
   18.1243,       405,
   18.1445,       456,
   18.1648,       413,
    18.185,       413,
   18.2052,       445,
   18.2254,       481,
   18.2456,       396,
   18.2658,       442,
   18.2861,       450,
   18.3063,       443,
   18.3265,       458,
   18.3467,       425,
   18.3669,       420,
   18.3872,       427,
   18.4074,       428,
   18.4276,       426,
   18.4478,       421,
    18.468,       416,
   18.4883,       416,
   18.5085,       420,
   18.5287,       436,
   18.5489,       420,
   18.5691,       457,
   18.5893,       459,
   18.6096,       443,
   18.6298,       442,
     18.65,       429,
   18.6702,       439,
   18.6904,       445,
   18.7107,       428,
   18.7309,       491,
   18.7511,       467,
   18.7713,       439,
   18.7915,       412,
   18.8118,       393,
    18.832,       407,
   18.8522,       444,
   18.8724,       433,
   18.8926,       463,
   18.9128,       449,
   18.9331,       455,
   18.9533,       417,
   18.9735,       445,
   18.9937,       432,
   19.0139,       416,
   19.0342,       438,
   19.0544,       442,
   19.0746,       448,
   19.0948,       398,
    19.115,       439,
   19.1353,       411,
   19.1555,       421,
   19.1757,       427,
   19.1959,       463,
   19.2161,       415,
   19.2363,       420,
   19.2566,       447,
   19.2768,       462,
    19.297,       429,
   19.3172,       406,
   19.3374,       460,
   19.3577,       407,
   19.3779,       433,
   19.3981,       420,
   19.4183,       437,
   19.4385,       446,
   19.4588,       437,
    19.479,       449,
   19.4992,       434,
   19.5194,       443,
   19.5396,       428,
   19.5599,       434,
   19.5801,       399,
   19.6003,       416,
   19.6205,       389,
   19.6407,       463,
   19.6609,       471,
   19.6812,       462,
   19.7014,       467,
   19.7216,       472,
   19.7418,       413,
    19.762,       448,
   19.7823,       486,
   19.8025,       430,
   19.8227,       437,
   19.8429,       428,
   19.8631,       438,
   19.8834,       444,
   19.9036,       416,
   19.9238,       412,
    19.944,       436,
   19.9642,       433,
   19.9844,       450,
   20.0047,       452,
   20.0249,       427,
   20.0451,       438,
   20.0653,       419,
   20.0855,       433,
   20.1058,       429,
    20.126,       450,
   20.1462,       421,
   20.1664,       464,
   20.1866,       451,
   20.2069,       420,
   20.2271,       423,
   20.2473,       416,
   20.2675,       363,
   20.2877,       420,
   20.3079,       443,
   20.3282,       422,
   20.3484,       420,
   20.3686,       408,
   20.3888,       448,
    20.409,       397,
   20.4293,       417,
   20.4495,       423,
   20.4697,       429,
   20.4899,       406,
   20.5101,       403,
   20.5304,       429,
   20.5506,       406,
   20.5708,       421,
    20.591,       455,
   20.6112,       463,
   20.6314,       405,
   20.6517,       415,
   20.6719,       396,
   20.6921,       405,
   20.7123,       438,
   20.7325,       449,
   20.7528,       452,
    20.773,       440,
   20.7932,       424,
   20.8134,       423,
   20.8336,       406,
   20.8539,       393,
   20.8741,       439,
   20.8943,       400,
   20.9145,       407,
   20.9347,       407,
   20.9549,       403,
   20.9752,       411,
   20.9954,       434,
   21.0156,       427,
   21.0358,       401,
    21.056,       430,
   21.0763,       412,
   21.0965,       401,
   21.1167,       391,
   21.1369,       387,
   21.1571,       430,
   21.1774,       438,
   21.1976,       419,
   21.2178,       404,
    21.238,       451,
   21.2582,       399,
   21.2784,       410,
   21.2987,       427,
   21.3189,       407,
   21.3391,       438,
   21.3593,       439,
   21.3795,       372,
   21.3998,       438,
     21.42,       440,
   21.4402,       415,
   21.4604,       391,
   21.4806,       418,
   21.5009,       419,
   21.5211,       427,
   21.5413,       403,
   21.5615,       449,
   21.5817,       430,
   21.6019,       406,
   21.6222,       450,
   21.6424,       416,
   21.6626,       417,
   21.6828,       391,
    21.703,       389,
   21.7233,       402,
   21.7435,       423,
   21.7637,       433,
   21.7839,       418,
   21.8041,       409,
   21.8244,       419,
   21.8446,       415,
   21.8648,       428,
    21.885,       449,
   21.9052,       408,
   21.9254,       431,
   21.9457,       439,
   21.9659,       425,
   21.9861,       394,
   22.0063,       414,
   22.0265,       420,
   22.0468,       445,
    22.067,       407,
   22.0872,       427,
   22.1074,       445,
   22.1276,       416,
   22.1479,       433,
   22.1681,       444,
   22.1883,       408,
   22.2085,       428,
   22.2287,       430,
   22.2489,       436,
   22.2692,       413,
   22.2894,       436,
   22.3096,       425,
   22.3298,       399,
     22.35,       427,
   22.3703,       453,
   22.3905,       418,
   22.4107,       465,
   22.4309,       421,
   22.4511,       417,
   22.4714,       416,
   22.4916,       455,
   22.5118,       448,
    22.532,       423,
   22.5522,       442,
   22.5724,       444,
   22.5927,       407,
   22.6129,       476,
   22.6331,       449,
   22.6533,       460,
   22.6735,       445,
   22.6938,       435,
    22.714,       415,
   22.7342,       432,
   22.7544,       426,
   22.7746,       436,
   22.7949,       447,
   22.8151,       460,
   22.8353,       440,
   22.8555,       412,
   22.8757,       434,
   22.8959,       447,
   22.9162,       451,
   22.9364,       454,
   22.9566,       430,
   22.9768,       443,
    22.997,       415,
   23.0173,       436,
   23.0375,       462,
   23.0577,       428,
   23.0779,       447,
   23.0981,       473,
   23.1184,       451,
   23.1386,       452,
   23.1588,       440,
    23.179,       436,
   23.1992,       457,
   23.2194,       466,
   23.2397,       472,
   23.2599,       478,
   23.2801,       471,
   23.3003,       426,
   23.3205,       447,
   23.3408,       477,
    23.361,       407,
   23.3812,       434,
   23.4014,       458,
   23.4216,       465,
   23.4419,       460,
   23.4621,       420,
   23.4823,       441,
   23.5025,       471,
   23.5227,       450,
   23.5429,       435,
   23.5632,       450,
   23.5834,       435,
   23.6036,       417,
   23.6238,       453,
    23.644,       457,
   23.6643,       421,
   23.6845,       462,
   23.7047,       433,
   23.7249,       459,
   23.7451,       411,
   23.7654,       400,
   23.7856,       414,
   23.8058,       464,
    23.826,       459,
   23.8462,       442,
   23.8664,       455,
   23.8867,       460,
   23.9069,       420,
   23.9271,       434,
   23.9473,       441,
   23.9675,       411,
   23.9878,       405,
    24.008,       442,
   24.0282,       405,
   24.0484,       415,
   24.0686,       454,
   24.0889,       400,
   24.1091,       457,
   24.1293,       417,
   24.1495,       419,
   24.1697,       431,
   24.1899,       387,
   24.2102,       454,
   24.2304,       424,
   24.2506,       437,
   24.2708,       408,
    24.291,       375,
   24.3113,       433,
   24.3315,       419,
   24.3517,       472,
   24.3719,       454,
   24.3921,       454,
   24.4124,       416,
   24.4326,       438,
   24.4528,       402,
    24.473,       409,
   24.4932,       440,
   24.5134,       429,
   24.5337,       405,
   24.5539,       438,
   24.5741,       460,
   24.5943,       500,
   24.6145,       467,
   24.6348,       534,
    24.655,       513,
   24.6752,       526,
   24.6954,       507,
   24.7156,       483,
   24.7359,       468,
   24.7561,       428,
   24.7763,       432,
   24.7965,       400,
   24.8167,       407,
   24.8369,       379,
   24.8572,       408,
   24.8774,       390,
   24.8976,       415,
   24.9178,       434,
    24.938,       419,
   24.9583,       394,
   24.9785,       401,
   24.9987,       411,
   25.0189,       367,
   25.0391,       427,
   25.0594,       397,
   25.0796,       397,
   25.0998,       409,
     25.12,       382,
   25.1402,       377,
   25.1604,       395,
   25.1807,       404,
   25.2009,       393,
   25.2211,       371,
   25.2413,       372,
   25.2615,       394,
   25.2818,       380,
    25.302,       418,
   25.3222,       387,
   25.3424,       411,
   25.3626,       397,
   25.3829,       434,
   25.4031,       409,
   25.4233,       401,
   25.4435,       418,
   25.4637,       361,
   25.4839,       386,
   25.5042,       387,
   25.5244,       395,
   25.5446,       387,
   25.5648,       406,
    25.585,       380,
   25.6053,       400,
   25.6255,       425,
   25.6457,       391,
   25.6659,       360,
   25.6861,       374,
   25.7064,       362,
   25.7266,       392,
   25.7468,       392,
    25.767,       382,
   25.7872,       392,
   25.8074,       430,
   25.8277,       405,
   25.8479,       365,
   25.8681,       370,
   25.8883,       384,
   25.9085,       411,
   25.9288,       426,
    25.949,       424,
   25.9692,       418,
   25.9894,       388,
   26.0096,       406,
   26.0299,       417,
   26.0501,       450,
   26.0703,       434,
   26.0905,       426,
   26.1107,       445,
   26.1309,       434,
   26.1512,       413,
   26.1714,       385,
   26.1916,       410,
   26.2118,       410,
    26.232,       392,
   26.2523,       398,
   26.2725,       417,
   26.2927,       385,
   26.3129,       387,
   26.3331,       354,
   26.3534,       397,
   26.3736,       373,
   26.3938,       387,
    26.414,       379,
   26.4342,       363,
   26.4544,       410,
   26.4747,       381,
   26.4949,       390,
   26.5151,       385,
   26.5353,       372,
   26.5555,       373,
   26.5758,       407,
    26.596,       363,
   26.6162,       382,
   26.6364,       394,
   26.6566,       378,
   26.6769,       411,
   26.6971,       376,
   26.7173,       411,
   26.7375,       418,
   26.7577,       340,
   26.7779,       353,
   26.7982,       378,
   26.8184,       411,
   26.8386,       362,
   26.8588,       394,
    26.879,       423,
   26.8993,       379,
   26.9195,       410,
   26.9397,       438,
   26.9599,       450,
   26.9801,       456,
   27.0004,       468,
   27.0206,       435,
   27.0408,       434,
    27.061,       426,
   27.0812,       434,
   27.1014,       466,
   27.1217,       380,
   27.1419,       417,
   27.1621,       411,
   27.1823,       398,
   27.2025,       400,
   27.2228,       462,
    27.243,       449,
   27.2632,       412,
   27.2834,       430,
   27.3036,       428,
   27.3239,       405,
   27.3441,       428,
   27.3643,       456,
   27.3845,       389,
   27.4047,       398,
   27.4249,       434,
   27.4452,       403,
   27.4654,       447,
   27.4856,       392,
   27.5058,       387,
    27.526,       391,
   27.5463,       408,
   27.5665,       444,
   27.5867,       444,
   27.6069,       446,
   27.6271,       415,
   27.6474,       480,
   27.6676,       476,
   27.6878,       519,
    27.708,       542,
   27.7282,       477,
   27.7484,       505,
   27.7687,       415,
   27.7889,       456,
   27.8091,       436,
   27.8293,       468,
   27.8495,       471,
   27.8698,       444,
     27.89,       467,
   27.9102,       442,
   27.9304,       457,
   27.9506,       422,
   27.9709,       440,
   27.9911,       439,
   28.0113,       406,
   28.0315,       383,
   28.0517,       394,
   28.0719,       418,
   28.0922,       359,
   28.1124,       408,
   28.1326,       398,
   28.1528,       389,
    28.173,       381,
   28.1933,       423,
   28.2135,       398,
   28.2337,       402,
   28.2539,       388,
   28.2741,       370,
   28.2944,       396,
   28.3146,       411,
   28.3348,       389,
    28.355,       371,
   28.3752,       390,
   28.3954,       378,
   28.4157,       377,
   28.4359,       400,
   28.4561,       378,
   28.4763,       391,
   28.4965,       431,
   28.5168,       412,
    28.537,       390,
   28.5572,       404,
   28.5774,       387,
   28.5976,       399,
   28.6179,       395,
   28.6381,       388,
   28.6583,       383,
   28.6785,       391,
   28.6987,       403,
   28.7189,       417,
   28.7392,       436,
   28.7594,       432,
   28.7796,       400,
   28.7998,       425,
     28.82,       431,
   28.8403,       413,
   28.8605,       360,
   28.8807,       366,
   28.9009,       383,
   28.9211,       386,
   28.9414,       363,
   28.9616,       370,
   28.9818,       349,
    29.002,       376,
   29.0222,       422,
   29.0424,       414,
   29.0627,       377,
   29.0829,       383,
   29.1031,       366,
   29.1233,       374,
   29.1435,       393,
   29.1638,       389,
    29.184,       360,
   29.2042,       363,
   29.2244,       378,
   29.2446,       391,
   29.2649,       412,
   29.2851,       401,
   29.3053,       368,
   29.3255,       370,
   29.3457,       339,
   29.3659,       358,
   29.3862,       411,
   29.4064,       350,
   29.4266,       391,
   29.4468,       377,
    29.467,       387,
   29.4873,       359,
   29.5075,       414,
   29.5277,       402,
   29.5479,       368,
   29.5681,       375,
   29.5884,       376,
   29.6086,       341,
   29.6288,       367,
    29.649,       353,
   29.6692,       387,
   29.6894,       375,
   29.7097,       383,
   29.7299,       362,
   29.7501,       375,
   29.7703,       409,
   29.7905,       426,
   29.8108,       417,
    29.831,       410,
   29.8512,       424,
   29.8714,       409,
   29.8916,       411,
   29.9119,       453,
   29.9321,       441,
   29.9523,       470,
   29.9725,       511,
   29.9927,       454,
   30.0129,       483,
   30.0332,       482,
   30.0534,       418,
   30.0736,       439,
   30.0938,       448,
    30.114,       459,
   30.1343,       467,
   30.1545,       463,
   30.1747,       479,
   30.1949,       492,
   30.2151,       468,
   30.2354,       497,
   30.2556,       467,
   30.2758,       530,
    30.296,       542,
   30.3162,       556,
   30.3365,       599,
   30.3567,       574,
   30.3769,       585,
   30.3971,       645,
   30.4173,       649,
   30.4375,       741,
   30.4578,       785,
    30.478,       869,
   30.4982,       988,
   30.5184,      1328,
   30.5386,      1546,
   30.5589,      2079,
   30.5791,      2834,
   30.5993,      3981,
   30.6195,      5213,
   30.6397,      5961,
     30.66,      5616,
   30.6802,      4833,
   30.7004,      4148,
   30.7206,      3418,
   30.7408,      2443,
    30.761,      1782,
   30.7813,      1311,
   30.8015,      1105,
   30.8217,       889,
   30.8419,       832,
   30.8621,       723,
   30.8824,       666,
   30.9026,       668,
   30.9228,       680,
    30.943,       612,
   30.9632,       569,
   30.9835,       616,
   31.0037,       592,
   31.0239,       558,
   31.0441,       534,
   31.0643,       512,
   31.0845,       481,
   31.1048,       517,
    31.125,       513,
   31.1452,       560,
   31.1654,       536,
   31.1856,       507,
   31.2059,       526,
   31.2261,       463,
   31.2463,       504,
   31.2665,       482,
   31.2867,       461,
    31.307,       472,
   31.3272,       519,
   31.3474,       490,
   31.3676,       513,
   31.3878,       507,
    31.408,       530,
   31.4283,       522,
   31.4485,       524,
   31.4687,       558,
   31.4889,       536,
   31.5091,       513,
   31.5294,       539,
   31.5496,       609,
   31.5698,       576,
     31.59,       588,
   31.6102,       634,
   31.6305,       738,
   31.6507,       726,
   31.6709,       873,
   31.6911,       912,
   31.7113,      1130,
   31.7315,      1383,
   31.7518,      1888,
    31.772,      2401,
   31.7922,      3079,
   31.8124,      3381,
   31.8326,      3255,
   31.8529,      2745,
   31.8731,      2467,
   31.8933,      2070,
   31.9135,      1692,
   31.9337,      1256,
    31.954,      1093,
   31.9742,       981,
   31.9944,       929,
   32.0146,       901,
   32.0348,       870,
    32.055,       779,
   32.0753,       748,
   32.0955,       642,
   32.1157,       616,
   32.1359,       562,
   32.1561,       506,
   32.1764,       536,
   32.1966,       487,
   32.2168,       466,
    32.237,       489,
   32.2572,       426,
   32.2775,       441,
   32.2977,       404,
   32.3179,       416,
   32.3381,       428,
   32.3583,       440,
   32.3785,       363,
   32.3988,       372,
    32.419,       409,
   32.4392,       368,
   32.4594,       348,
   32.4796,       388,
   32.4999,       408,
   32.5201,       420,
   32.5403,       372,
   32.5605,       348,
   32.5807,       378,
    32.601,       379,
   32.6212,       376,
   32.6414,       387,
   32.6616,       404,
   32.6818,       352,
    32.702,       389,
   32.7223,       334,
   32.7425,       348,
   32.7627,       337,
   32.7829,       371,
   32.8031,       363,
   32.8234,       373,
   32.8436,       376,
   32.8638,       393,
    32.884,       349,
   32.9042,       352,
   32.9245,       372,
   32.9447,       376,
   32.9649,       355,
   32.9851,       388,
   33.0053,       366,
   33.0255,       380,
   33.0458,       387,
    33.066,       400,
   33.0862,       356,
   33.1064,       317,
   33.1266,       349,
   33.1469,       292,
   33.1671,       337,
   33.1873,       346,
   33.2075,       367,
   33.2277,       349,
    33.248,       377,
   33.2682,       382,
   33.2884,       366,
   33.3086,       332,
   33.3288,       376,
    33.349,       346,
   33.3693,       354,
   33.3895,       367,
   33.4097,       354,
   33.4299,       373,
   33.4501,       426,
   33.4704,       393,
   33.4906,       451,
   33.5108,       505,
    33.531,       485,
   33.5512,       422,
   33.5715,       461,
   33.5917,       398,
   33.6119,       344,
   33.6321,       373,
   33.6523,       334,
   33.6725,       382,
   33.6928,       349,
    33.713,       314,
   33.7332,       363,
   33.7534,       357,
   33.7736,       366,
   33.7939,       366,
   33.8141,       346,
   33.8343,       344,
   33.8545,       367,
   33.8747,       358,
    33.895,       345,
   33.9152,       372,
   33.9354,       359,
   33.9556,       366,
   33.9758,       407,
    33.996,       340,
   34.0163,       346,
   34.0365,       355,
   34.0567,       381,
   34.0769,       370,
   34.0971,       372,
   34.1174,       327,
   34.1376,       373,
   34.1578,       367,
    34.178,       363,
   34.1982,       368,
   34.2185,       388,
   34.2387,       387,
   34.2589,       382,
   34.2791,       411,
   34.2993,       383,
   34.3195,       426,
   34.3398,       469,
     34.36,       504,
   34.3802,       559,
   34.4004,       667,
   34.4206,       804,
   34.4409,       787,
   34.4611,       770,
   34.4813,       745,
   34.5015,       763,
   34.5217,       674,
    34.542,       627,
   34.5622,       648,
   34.5824,       601,
   34.6026,       598,
   34.6228,       640,
    34.643,       701,
   34.6633,       738,
   34.6835,       803,
   34.7037,       838,
   34.7239,       833,
   34.7441,       891,
   34.7644,       837,
   34.7846,       911,
   34.8048,       914,
    34.825,       863,
   34.8452,       838,
   34.8655,       869,
   34.8857,       788,
   34.9059,       785,
   34.9261,       718,
   34.9463,       718,
   34.9665,       748,
   34.9868,       728,
    35.007,       718,
   35.0272,       670,
   35.0474,       688,
   35.0676,       691,
   35.0879,       569,
   35.1081,       599,
   35.1283,       588,
   35.1485,       524,
   35.1687,       551,
    35.189,       578,
   35.2092,       567,
   35.2294,       548,
   35.2496,       618,
   35.2698,       605,
     35.29,       563,
   35.3103,       604,
   35.3305,       620,
   35.3507,       622,
   35.3709,       589,
   35.3911,       687,
   35.4114,       646,
   35.4316,       670,
   35.4518,       652,
    35.472,       706,
   35.4922,       698,
   35.5125,       715,
   35.5327,       735,
   35.5529,       732,
   35.5731,       785,
   35.5933,       772,
   35.6135,       739,
   35.6338,       762,
    35.654,       814,
   35.6742,       809,
   35.6944,       819,
   35.7146,       817,
   35.7349,       833,
   35.7551,       808,
   35.7753,       845,
   35.7955,       848,
   35.8157,       838,
    35.836,       829,
   35.8562,       787,
   35.8764,       763,
   35.8966,       793,
   35.9168,       750,
    35.937,       720,
   35.9573,       723,
   35.9775,       641,
   35.9977,       686,
   36.0179,       654,
   36.0381,       675,
   36.0584,       674,
   36.0786,       638,
   36.0988,       620,
    36.119,       643,
   36.1392,       650,
   36.1595,       673,
   36.1797,       582,
   36.1999,       606,
   36.2201,       574,
   36.2403,       495,
   36.2605,       546,
   36.2808,       499,
    36.301,       533,
   36.3212,       548,
   36.3414,       589,
   36.3616,       648,
   36.3819,       604,
   36.4021,       590,
   36.4223,       593,
   36.4425,       499,
   36.4627,       542,
    36.483,       460,
   36.5032,       430,
   36.5234,       418,
   36.5436,       428,
   36.5638,       459,
    36.584,       403,
   36.6043,       430,
   36.6245,       402,
   36.6447,       392,
   36.6649,       433,
   36.6851,       460,
   36.7054,       432,
   36.7256,       448,
   36.7458,       470,
    36.766,       481,
   36.7862,       467,
   36.8065,       528,
   36.8267,       529,
   36.8469,       506,
   36.8671,       610,
   36.8873,       624,
   36.9075,       724,
   36.9278,       740,
    36.948,       792,
   36.9682,       896,
   36.9884,      1104,
   37.0086,      1625,
   37.0289,      2375,
   37.0491,      3665,
   37.0693,      5183,
   37.0895,      5894,
   37.1097,      6052,
     37.13,      5570,
   37.1502,      4744,
   37.1704,      4434,
   37.1906,      3807,
   37.2108,      3018,
    37.231,      2060,
   37.2513,      1518,
   37.2715,      1192,
   37.2917,       924,
   37.3119,       829,
   37.3321,       728,
   37.3524,       666,
   37.3726,       615,
   37.3928,       580,
    37.413,       495,
   37.4332,       482,
   37.4535,       536,
   37.4737,       455,
   37.4939,       434,
   37.5141,       426,
   37.5343,       418,
   37.5545,       384,
   37.5748,       407,
    37.595,       382,
   37.6152,       360,
   37.6354,       384,
   37.6556,       395,
   37.6759,       357,
   37.6961,       395,
   37.7163,       372,
   37.7365,       426,
   37.7567,       362,
    37.777,       424,
   37.7972,       386,
   37.8174,       380,
   37.8376,       447,
   37.8578,       393,
    37.878,       416,
   37.8983,       371,
   37.9185,       369,
   37.9387,       358,
   37.9589,       358,
   37.9791,       381,
   37.9994,       379,
   38.0196,       384,
   38.0398,       388,
     38.06,       448,
   38.0802,       378,
   38.1005,       426,
   38.1207,       382,
   38.1409,       446,
   38.1611,       434,
   38.1813,       464,
   38.2015,       481,
   38.2218,       508,
    38.242,       604,
   38.2622,       637,
   38.2824,       740,
   38.3026,       810,
   38.3229,       774,
   38.3431,       750,
   38.3633,       734,
   38.3835,       693,
   38.4037,       640,
    38.424,       597,
   38.4442,       560,
   38.4644,       569,
   38.4846,       554,
   38.5048,       563,
    38.525,       566,
   38.5453,       592,
   38.5655,       656,
   38.5857,       701,
   38.6059,       688,
   38.6261,       904,
   38.6464,      1054,
   38.6666,      1391,
   38.6868,      1881,
    38.707,      2257,
   38.7272,      2839,
   38.7475,      2961,
   38.7677,      2726,
   38.7879,      2289,
   38.8081,      2187,
   38.8283,      2005,
   38.8485,      1597,
   38.8688,      1184,
    38.889,       941,
   38.9092,       775,
   38.9294,       658,
   38.9496,       607,
   38.9699,       543,
   38.9901,       505,
   39.0103,       459,
   39.0305,       476,
   39.0507,       494,
    39.071,       443,
   39.0912,       471,
   39.1114,       401,
   39.1316,       411,
   39.1518,       345,
    39.172,       400,
   39.1923,       348,
   39.2125,       348,
   39.2327,       339,
   39.2529,       347,
   39.2731,       370,
   39.2934,       369,
   39.3136,       363,
   39.3338,       364,
    39.354,       341,
   39.3742,       344,
   39.3945,       358,
   39.4147,       334,
   39.4349,       334,
   39.4551,       314,
   39.4753,       331,
   39.4955,       339,
   39.5158,       334,
    39.536,       307,
   39.5562,       313,
   39.5764,       321,
   39.5966,       324,
   39.6169,       311,
   39.6371,       298,
   39.6573,       317,
   39.6775,       297,
   39.6977,       321,
    39.718,       317,
   39.7382,       329,
   39.7584,       311,
   39.7786,       338,
   39.7988,       316,
    39.819,       350,
   39.8393,       320,
   39.8595,       300,
   39.8797,       295,
   39.8999,       358,
   39.9201,       337,
   39.9404,       364,
   39.9606,       334,
   39.9808,       338,
    40.001,       352,
   40.0212,       370,
   40.0415,       364,
   40.0617,       367,
   40.0819,       337,
   40.1021,       340,
   40.1223,       329,
   40.1425,       344,
   40.1628,       337,
    40.183,       336,
   40.2032,       338,
   40.2234,       331,
   40.2436,       326,
   40.2639,       326,
   40.2841,       295,
   40.3043,       340,
   40.3245,       321,
   40.3447,       326,
    40.365,       335,
   40.3852,       343,
   40.4054,       318,
   40.4256,       336,
   40.4458,       348,
    40.466,       326,
   40.4863,       357,
   40.5065,       371,
   40.5267,       328,
   40.5469,       347,
   40.5671,       354,
   40.5874,       359,
   40.6076,       369,
   40.6278,       341,
    40.648,       371,
   40.6682,       357,
   40.6885,       360,
   40.7087,       368,
   40.7289,       352,
   40.7491,       376,
   40.7693,       341,
   40.7895,       370,
   40.8098,       352,
     40.83,       387,
   40.8502,       323,
   40.8704,       352,
   40.8906,       306,
   40.9109,       323,
   40.9311,       347,
   40.9513,       320,
   40.9715,       352,
   40.9917,       335,
    41.012,       319,
   41.0322,       342,
   41.0524,       330,
   41.0726,       345,
   41.0928,       330,
   41.1131,       366,
   41.1333,       343,
   41.1535,       343,
   41.1737,       371,
   41.1939,       361,
   41.2141,       350,
   41.2344,       305,
   41.2546,       326,
   41.2748,       322,
    41.295,       321,
   41.3152,       317,
   41.3355,       327,
   41.3557,       362,
   41.3759,       325,
   41.3961,       319,
   41.4163,       328,
   41.4366,       302,
   41.4568,       329,
    41.477,       334,
   41.4972,       319,
   41.5174,       374,
   41.5376,       346,
   41.5579,       354,
   41.5781,       388,
   41.5983,       350,
   41.6185,       339,
   41.6387,       315,
    41.659,       343,
   41.6792,       347,
   41.6994,       381,
   41.7196,       327,
   41.7398,       318,
   41.7601,       331,
   41.7803,       388,
   41.8005,       342,
   41.8207,       348,
   41.8409,       388,
   41.8611,       365,
   41.8814,       348,
   41.9016,       377,
   41.9218,       381,
    41.942,       381,
   41.9622,       413,
   41.9825,       401,
   42.0027,       411,
   42.0229,       457,
   42.0431,       475,
   42.0633,       499,
   42.0836,       493,
   42.1038,       586,
    42.124,       630,
   42.1442,       804,
   42.1644,       908,
   42.1846,      1018,
   42.2049,      1296,
   42.2251,      1533,
   42.2453,      1826,
   42.2655,      1748,
   42.2857,      1695,
    42.306,      1833,
   42.3262,      1795,
   42.3464,      1899,
   42.3666,      1741,
   42.3868,      1473,
   42.4071,      1238,
   42.4273,      1079,
   42.4475,      1030,
   42.4677,       897,
   42.4879,       747,
   42.5081,       678,
   42.5284,       601,
   42.5486,       540,
   42.5688,       524,
    42.589,       480,
   42.6092,       487,
   42.6295,       443,
   42.6497,       452,
   42.6699,       454,
   42.6901,       465,
   42.7103,       454,
   42.7306,       385,
   42.7508,       460,
    42.771,       379,
   42.7912,       382,
   42.8114,       379,
   42.8316,       395,
   42.8519,       386,
   42.8721,       348,
   42.8923,       377,
   42.9125,       362,
   42.9327,       328,
    42.953,       388,
   42.9732,       345,
   42.9934,       377,
   43.0136,       360,
   43.0338,       371,
   43.0541,       379,
   43.0743,       373,
   43.0945,       352,
   43.1147,       380,
   43.1349,       395,
   43.1551,       358,
   43.1754,       361,
   43.1956,       368,
   43.2158,       371,
    43.236,       350,
   43.2562,       350,
   43.2765,       404,
   43.2967,       382,
   43.3169,       409,
   43.3371,       444,
   43.3573,       434,
   43.3776,       397,
   43.3978,       440,
    43.418,       401,
   43.4382,       437,
   43.4584,       472,
   43.4786,       476,
   43.4989,       489,
   43.5191,       529,
   43.5393,       597,
   43.5595,       681,
   43.5797,       811,
      43.6,       885,
   43.6202,       969,
   43.6404,      1007,
   43.6606,       913,
   43.6808,       899,
   43.7011,       822,
   43.7213,       770,
   43.7415,       738,
   43.7617,       696,
   43.7819,       594,
   43.8021,       516,
   43.8224,       480,
   43.8426,       451,
   43.8628,       435,
    43.883,       452,
   43.9032,       392,
   43.9235,       409,
   43.9437,       426,
   43.9639,       407,
   43.9841,       409,
   44.0043,       398,
   44.0246,       382,
   44.0448,       443,
    44.065,       432,
   44.0852,       464,
   44.1054,       446,
   44.1256,       470,
   44.1459,       525,
   44.1661,       480,
   44.1863,       514,
   44.2065,       607,
   44.2267,       635,
    44.247,       733,
   44.2672,       945,
   44.2874,      1206,
   44.3076,      1607,
   44.3278,      1903,
   44.3481,      2187,
   44.3683,      2079,
   44.3885,      1860,
   44.4087,      1621,
   44.4289,      1562,
   44.4491,      1497,
   44.4694,      1236,
   44.4896,      1098,
   44.5098,       866,
     44.53,       719,
   44.5502,       649,
   44.5705,       571,
   44.5907,       529,
   44.6109,       513,
   44.6311,       473,
   44.6513,       463,
   44.6716,       479,
   44.6918,       461,
    44.712,       452,
   44.7322,       463,
   44.7524,       481,
   44.7726,       477,
   44.7929,       512,
   44.8131,       509,
   44.8333,       534,
   44.8535,       576,
   44.8737,       602,
    44.894,       705,
   44.9142,       937,
   44.9344,      1127,
   44.9546,      1349,
   44.9748,      1495,
   44.9951,      1631,
   45.0153,      1443,
   45.0355,      1324,
   45.0557,      1263,
   45.0759,      1167,
   45.0961,      1163,
   45.1164,      1106,
   45.1366,      1041,
   45.1568,      1111,
    45.177,      1155,
   45.1972,      1302,
   45.2175,      1272,
   45.2377,      1243,
   45.2579,      1039,
   45.2781,       976,
   45.2983,       925,
   45.3186,       845,
   45.3388,       782,
    45.359,       686,
   45.3792,       580,
   45.3994,       531,
   45.4196,       443,
   45.4399,       420,
   45.4601,       396,
   45.4803,       395,
   45.5005,       367,
   45.5207,       346,
    45.541,       348,
   45.5612,       312,
   45.5814,       316,
   45.6016,       330,
   45.6218,       333,
   45.6421,       355,
   45.6623,       296,
   45.6825,       332,
   45.7027,       302,
   45.7229,       293,
   45.7431,       315,
   45.7634,       281,
   45.7836,       339,
   45.8038,       294,
    45.824,       295,
   45.8442,       288,
   45.8645,       301,
   45.8847,       332,
   45.9049,       314,
   45.9251,       305,
   45.9453,       272,
   45.9656,       286,
   45.9858,       292,
    46.006,       273,
   46.0262,       278,
   46.0464,       331,
   46.0666,       300,
   46.0869,       278,
   46.1071,       285,
   46.1273,       303,
   46.1475,       304,
   46.1677,       293,
    46.188,       319,
   46.2082,       379,
   46.2284,       403,
   46.2486,       424,
   46.2688,       425,
   46.2891,       386,
   46.3093,       406,
   46.3295,       391,
   46.3497,       379,
   46.3699,       356,
   46.3901,       372,
   46.4104,       339,
   46.4306,       317,
   46.4508,       315,
    46.471,       302,
   46.4912,       303,
   46.5115,       291,
   46.5317,       342,
   46.5519,       283,
   46.5721,       328,
   46.5923,       327,
   46.6126,       323,
   46.6328,       303,
    46.653,       323,
   46.6732,       335,
   46.6934,       332,
   46.7136,       350,
   46.7339,       328,
   46.7541,       328,
   46.7743,       334,
   46.7945,       369,
   46.8147,       350,
    46.835,       350,
   46.8552,       373,
   46.8754,       317,
   46.8956,       314,
   46.9158,       336,
   46.9361,       314,
   46.9563,       324,
   46.9765,       324,
   46.9967,       309,
   47.0169,       343,
   47.0371,       338,
   47.0574,       326,
   47.0776,       341,
   47.0978,       326,
    47.118,       321,
   47.1382,       336,
   47.1585,       321,
   47.1787,       293,
   47.1989,       282,
   47.2191,       323,
   47.2393,       293,
   47.2596,       323,
   47.2798,       330,
      47.3,       299,
   47.3202,       373,
   47.3404,       320,
   47.3606,       290,
   47.3809,       318,
   47.4011,       309,
   47.4213,       312,
   47.4415,       316,
   47.4617,       348,
    47.482,       316,
   47.5022,       337,
   47.5224,       326,
   47.5426,       341,
   47.5628,       356,
   47.5831,       370,
   47.6033,       387,
   47.6235,       346,
   47.6437,       382,
   47.6639,       361,
   47.6841,       362,
   47.7044,       360,
   47.7246,       372,
   47.7448,       391,
    47.765,       396,
   47.7852,       386,
   47.8055,       421,
   47.8257,       413,
   47.8459,       414,
   47.8661,       400,
   47.8863,       390,
   47.9066,       393,
   47.9268,       393,
    47.947,       387,
   47.9672,       430,
   47.9874,       390,
   48.0076,       413,
   48.0279,       439,
   48.0481,       473,
   48.0683,       415,
   48.0885,       409,
   48.1087,       407,
    48.129,       432,
   48.1492,       443,
   48.1694,       448,
   48.1896,       505,
   48.2098,       554,
   48.2301,       656,
   48.2503,       751,
   48.2705,       868,
   48.2907,       888,
   48.3109,       831,
   48.3311,       780,
   48.3514,       707,
   48.3716,       663,
   48.3918,       721,
    48.412,       637,
   48.4322,       613,
   48.4525,       525,
   48.4727,       448,
   48.4929,       423,
   48.5131,       365,
   48.5333,       361,
   48.5536,       362,
   48.5738,       307,
    48.594,       294,
   48.6142,       346,
   48.6344,       305,
   48.6546,       275,
   48.6749,       288,
   48.6951,       276,
   48.7153,       274,
   48.7355,       327,
   48.7557,       286,
    48.776,       337,
   48.7962,       271,
   48.8164,       272,
   48.8366,       294,
   48.8568,       273,
   48.8771,       288,
   48.8973,       279,
   48.9175,       289,
   48.9377,       285,
   48.9579,       279,
   48.9781,       275,
   48.9984,       280,
   49.0186,       266,
   49.0388,       268,
    49.059,       264,
   49.0792,       240,
   49.0995,       253,
   49.1197,       283,
   49.1399,       269,
   49.1601,       246,
   49.1803,       278,
   49.2006,       264,
   49.2208,       262,
    49.241,       254,
   49.2612,       273,
   49.2814,       250,
   49.3016,       262,
   49.3219,       274,
   49.3421,       276,
   49.3623,       269,
   49.3825,       283,
   49.4027,       250,
    49.423,       259,
   49.4432,       260,
   49.4634,       275,
   49.4836,       264,
   49.5038,       262,
   49.5241,       235,
   49.5443,       277,
   49.5645,       254,
   49.5847,       252,
   49.6049,       240,
   49.6251,       256,
   49.6454,       254,
   49.6656,       247,
   49.6858,       283,
    49.706,       262,
   49.7262,       272,
   49.7465,       257,
   49.7667,       289,
   49.7869,       269,
   49.8071,       293,
   49.8273,       262,
   49.8476,       274,
   49.8678,       253,
    49.888,       253,
   49.9082,       280,
   49.9284,       287,
   49.9486,       281,
   49.9689,       269,
   49.9891,       325,
   50.0093,       287,
   50.0295,       319,
   50.0497,       298,
     50.07,       308,
   50.0902,       320,
   50.1104,       286,
   50.1306,       328,
   50.1508,       320,
   50.1711,       345,
   50.1913,       369,
   50.2115,       414,
   50.2317,       493,
   50.2519,       574,
   50.2721,       679,
   50.2924,       896,
   50.3126,      1162,
   50.3328,      1266,
    50.353,      1181,
   50.3732,      1046,
   50.3935,       949,
   50.4137,       830,
   50.4339,       840,
   50.4541,       884,
   50.4743,       761,
   50.4946,       616,
   50.5148,       521,
    50.535,       407,
   50.5552,       386,
   50.5754,       371,
   50.5956,       320,
   50.6159,       332,
   50.6361,       375,
   50.6563,       342,
   50.6765,       352,
   50.6967,       354,
    50.717,       352,
   50.7372,       355,
   50.7574,       343,
   50.7776,       337,
   50.7978,       325,
   50.8181,       328,
   50.8383,       310,
   50.8585,       297,
   50.8787,       289,
   50.8989,       288,
   50.9191,       312,
   50.9394,       279,
   50.9596,       269,
   50.9798,       292,
        51,       290,
   51.0202,       296,
   51.0405,       305,
   51.0607,       282,
   51.0809,       339,
   51.1011,       309,
   51.1213,       326,
   51.1416,       307,
   51.1618,       323,
    51.182,       292,
   51.2022,       377,
   51.2224,       339,
   51.2426,       351,
   51.2629,       309,
   51.2831,       321,
   51.3033,       331,
   51.3235,       340,
   51.3437,       310,
    51.364,       331,
   51.3842,       321,
   51.4044,       309,
   51.4246,       326,
   51.4448,       301,
   51.4651,       318,
   51.4853,       296,
   51.5055,       313,
   51.5257,       286,
   51.5459,       283,
   51.5661,       281,
   51.5864,       283,
   51.6066,       277,
   51.6268,       259,
    51.647,       286,
   51.6672,       253,
   51.6875,       273,
   51.7077,       246,
   51.7279,       264,
   51.7481,       276,
   51.7683,       253,
   51.7886,       245,
   51.8088,       271,
    51.829,       271,
   51.8492,       245,
   51.8694,       265,
   51.8897,       267,
   51.9099,       287,
   51.9301,       298,
   51.9503,       297,
   51.9705,       305,
   51.9907,       283,
    52.011,       288,
   52.0312,       308,
   52.0514,       280,
   52.0716,       320,
   52.0918,       288,
   52.1121,       273,
   52.1323,       306,
   52.1525,       309,
   52.1727,       328,
   52.1929,       298,
   52.2132,       306,
   52.2334,       312,
   52.2536,       291,
   52.2738,       313,
    52.294,       299,
   52.3142,       291,
   52.3345,       335,
   52.3547,       322,
   52.3749,       331,
   52.3951,       319,
   52.4153,       302,
   52.4356,       330,
   52.4558,       343,
    52.476,       324,
   52.4962,       325,
   52.5164,       315,
   52.5367,       291,
   52.5569,       338,
   52.5771,       316,
   52.5973,       292,
   52.6175,       300,
   52.6377,       299,
    52.658,       322,
   52.6782,       283,
   52.6984,       297,
   52.7186,       297,
   52.7388,       265,
   52.7591,       270,
   52.7793,       287,
   52.7995,       321,
   52.8197,       268,
   52.8399,       273,
   52.8602,       303,
   52.8804,       297,
   52.9006,       310,
   52.9208,       308,
    52.941,       349,
   52.9612,       310,
   52.9815,       346,
   53.0017,       316,
   53.0219,       374,
   53.0421,       322,
   53.0623,       356,
   53.0826,       361,
   53.1028,       404,
    53.123,       338,
   53.1432,       392,
   53.1634,       421,
   53.1837,       422,
   53.2039,       493,
   53.2241,       528,
   53.2443,       530,
   53.2645,       604,
   53.2847,       748,
    53.305,       881,
   53.3252,      1057,
   53.3454,      1321,
   53.3656,      1469,
   53.3858,      1700,
   53.4061,      1577,
   53.4263,      1632,
   53.4465,      1538,
   53.4667,      1422,
   53.4869,      1417,
   53.5072,      1390,
   53.5274,      1240,
   53.5476,      1102,
   53.5678,      1051,
    53.588,       940,
   53.6082,       852,
   53.6285,       836,
   53.6487,       768,
   53.6689,       809,
   53.6891,       778,
   53.7093,       853,
   53.7296,       953,
   53.7498,      1182,
     53.77,      1453,
   53.7902,      1945,
   53.8104,      2526,
   53.8307,      3109,
   53.8509,      3389,
   53.8711,      3287,
   53.8913,      2747,
   53.9115,      2313,
   53.9317,      2112,
    53.952,      2180,
   53.9722,      2116,
   53.9924,      1840,
   54.0126,      1529,
   54.0328,      1178,
   54.0531,       953,
   54.0733,       787,
   54.0935,       669,
   54.1137,       600,
   54.1339,       547,
   54.1542,       495,
   54.1744,       470,
   54.1946,       405,
   54.2148,       428,
    54.235,       369,
   54.2552,       390,
   54.2755,       355,
   54.2957,       318,
   54.3159,       318,
   54.3361,       340,
   54.3563,       329,
   54.3766,       292,
   54.3968,       284,
    54.417,       276,
   54.4372,       303,
   54.4574,       289,
   54.4777,       270,
   54.4979,       245,
   54.5181,       327,
   54.5383,       266,
   54.5585,       288,
   54.5787,       309,
    54.599,       276,
   54.6192,       305,
   54.6394,       296,
   54.6596,       283,
   54.6798,       270,
   54.7001,       260,
   54.7203,       257,
   54.7405,       279,
   54.7607,       266,
   54.7809,       257,
   54.8012,       247,
   54.8214,       266,
   54.8416,       235,
   54.8618,       268,
    54.882,       273,
   54.9022,       254,
   54.9225,       248,
   54.9427,       284,
   54.9629,       271,
   54.9831,       234,
   55.0033,       256,
   55.0236,       245,
   55.0438,       235,
    55.064,       256,
   55.0842,       244,
   55.1044,       269,
   55.1247,       270,
   55.1449,       231,
   55.1651,       250,
   55.1853,       209,
   55.2055,       270,
   55.2257,       271,
    55.246,       242,
   55.2662,       253,
   55.2864,       276,
   55.3066,       256,
   55.3268,       240,
   55.3471,       274,
   55.3673,       245,
   55.3875,       266,
   55.4077,       275,
   55.4279,       268,
   55.4482,       300,
   55.4684,       256,
   55.4886,       269,
   55.5088,       266,
    55.529,       250,
   55.5492,       259,
   55.5695,       269,
   55.5897,       243,
   55.6099,       265,
   55.6301,       279,
   55.6503,       279,
   55.6706,       302,
   55.6908,       239,
    55.711,       266,
   55.7312,       273,
   55.7514,       252,
   55.7717,       250,
   55.7919,       302,
   55.8121,       279,
   55.8323,       267,
   55.8525,       296,
   55.8727,       313,
    55.893,       314,
   55.9132,       336,
   55.9334,       340,
   55.9536,       352,
   55.9738,       305,
   55.9941,       322,
   56.0143,       340,
   56.0345,       362,
   56.0547,       360,
   56.0749,       294,
   56.0952,       344,
   56.1154,       331,
   56.1356,       311,
   56.1558,       295,
    56.176,       265,
   56.1962,       289,
   56.2165,       296,
   56.2367,       333,
   56.2569,       315,
   56.2771,       322,
   56.2973,       362,
   56.3176,       345,
   56.3378,       337,
    56.358,       362,
   56.3782,       337,
   56.3984,       367,
   56.4187,       377,
   56.4389,       400,
   56.4591,       368,
   56.4793,       376,
   56.4995,       331,
   56.5197,       408,
     56.54,       411,
   56.5602,       436,
   56.5804,       472,
   56.6006,       495,
   56.6208,       510,
   56.6411,       550,
   56.6613,       596,
   56.6815,       684,
   56.7017,       764,
   56.7219,       890,
   56.7422,      1090,
   56.7624,      1294,
   56.7826,      1451,
   56.8028,      1512,
    56.823,      1510,
   56.8432,      1418,
   56.8635,      1382,
   56.8837,      1406,
   56.9039,      1424,
   56.9241,      1680,
   56.9443,      1568,
   56.9646,      1550,
   56.9848,      1377,
    57.005,      1154,
   57.0252,      1001,
   57.0454,       947,
   57.0657,       935,
   57.0859,       851,
   57.1061,       834,
   57.1263,       734,
   57.1465,       597,
   57.1667,       624,
    57.187,       543,
   57.2072,       498,
   57.2274,       466,
   57.2476,       472,
   57.2678,       423,
   57.2881,       392,
   57.3083,       379,
   57.3285,       395,
   57.3487,       360,
   57.3689,       389,
   57.3892,       345,
   57.4094,       367,
   57.4296,       365,
   57.4498,       342,
     57.47,       317,
   57.4902,       334,
   57.5105,       345,
   57.5307,       380,
   57.5509,       324,
   57.5711,       357,
   57.5913,       347,
   57.6116,       353,
   57.6318,       349,
    57.652,       343,
   57.6722,       343,
   57.6924,       341,
   57.7127,       346,
   57.7329,       342,
   57.7531,       342,
   57.7733,       383,
   57.7935,       345,
   57.8137,       361,
    57.834,       338,
   57.8542,       367,
   57.8744,       362,
   57.8946,       339,
   57.9148,       340,
   57.9351,       345,
   57.9553,       335,
   57.9755,       349,
   57.9957,       361,
   58.0159,       369,
   58.0362,       351,
   58.0564,       318,
   58.0766,       304,
   58.0968,       334,
    58.117,       291,
   58.1372,       291,
   58.1575,       306,
   58.1777,       292,
   58.1979,       313,
   58.2181,       300,
   58.2383,       323,
   58.2586,       319,
   58.2788,       297,
    58.299,       310,
   58.3192,       313,
   58.3394,       307,
   58.3597,       324,
   58.3799,       333,
   58.4001,       303,
   58.4203,       315,
   58.4405,       348,
   58.4607,       291,
    58.481,       330,
   58.5012,       323,
   58.5214,       311,
   58.5416,       331,
   58.5618,       302,
   58.5821,       340,
   58.6023,       360,
   58.6225,       398,
   58.6427,       423,
   58.6629,       397,
   58.6832,       391,
   58.7034,       393,
   58.7236,       412,
   58.7438,       402,
    58.764,       408,
   58.7842,       424,
   58.8045,       418,
   58.8247,       423,
   58.8449,       405,
   58.8651,       404,
   58.8853,       451,
   58.9056,       481,
   58.9258,       487,
    58.946,       517,
   58.9662,       558,
   58.9864,       656,
   59.0067,       777,
   59.0269,       990,
   59.0471,      1094,
   59.0673,      1303,
   59.0875,      1409,
   59.1077,      1334,
    59.128,      1238,
   59.1482,      1041,
   59.1684,       995,
   59.1886,       929,
   59.2088,       934,
   59.2291,       932,
   59.2493,       867,
   59.2695,       731,
   59.2897,       623,
   59.3099,       596,
   59.3302,       494,
   59.3504,       451,
   59.3706,       399,
   59.3908,       393,
    59.411,       384,
   59.4312,       378,
   59.4515,       349,
   59.4717,       361,
   59.4919,       349,
   59.5121,       324,
   59.5323,       310,
   59.5526,       340,
   59.5728,       333,
    59.593,       288,
   59.6132,       341,
   59.6334,       290,
   59.6537,       276,
   59.6739,       281,
   59.6941,       285,
   59.7143,       335,
   59.7345,       276,
   59.7547,       291,
    59.775,       274,
   59.7952,       287,
   59.8154,       271,
   59.8356,       254,
   59.8558,       238,
   59.8761,       279,
   59.8963,       276,
   59.9165,       263,
   59.9367,       249,
   59.9569,       259,
   59.9772,       241,
   59.9974,       237,
   60.0176,       214,
   60.0378,       257,
    60.058,       257,
   60.0782,       255,
   60.0985,       264,
   60.1187,       238,
   60.1389,       213,
   60.1591,       246,
   60.1793,       220,
   60.1996,       231,
   60.2198,       213,
     60.24,       253,
   60.2602,       240,
   60.2804,       249,
   60.3007,       222,
   60.3209,       217,
   60.3411,       207,
   60.3613,       199,
   60.3815,       216,
   60.4017,       248,
    60.422,       232,
   60.4422,       239,
   60.4624,       244,
   60.4826,       234,
   60.5028,       210,
   60.5231,       217,
   60.5433,       222,
   60.5635,       220,
   60.5837,       221,
   60.6039,       218,
   60.6242,       240,
   60.6444,       237,
   60.6646,       231,
   60.6848,       219,
    60.705,       209,
   60.7252,       233,
   60.7455,       231,
   60.7657,       211,
   60.7859,       263,
   60.8061,       231,
   60.8263,       215,
   60.8466,       241,
   60.8668,       216,
    60.887,       233,
   60.9072,       242,
   60.9274,       252,
   60.9477,       208,
   60.9679,       237,
   60.9881,       242,
   61.0083,       243,
   61.0285,       252,
   61.0487,       275,
    61.069,       264,
   61.0892,       302,
   61.1094,       327,
   61.1296,       350,
   61.1498,       360,
   61.1701,       340,
   61.1903,       311,
   61.2105,       308,
   61.2307,       297,
   61.2509,       324,
   61.2712,       277,
   61.2914,       295,
   61.3116,       291,
   61.3318,       299,
    61.352,       283,
   61.3722,       294,
   61.3925,       265,
   61.4127,       260,
   61.4329,       328,
   61.4531,       312,
   61.4733,       286,
   61.4936,       297,
   61.5138,       328,
    61.534,       325,
   61.5542,       333,
   61.5744,       363,
   61.5947,       368,
   61.6149,       426,
   61.6351,       452,
   61.6553,       518,
   61.6755,       635,
   61.6957,       823,
    61.716,      1019,
   61.7362,      1113,
   61.7564,      1280,
   61.7766,      1303,
   61.7968,      1127,
   61.8171,      1047,
   61.8373,       919,
   61.8575,       827,
   61.8777,       833,
   61.8979,       870,
   61.9182,       862,
   61.9384,       802,
   61.9586,       667,
   61.9788,       618,
    61.999,       492,
   62.0192,       470,
   62.0395,       377,
   62.0597,       389,
   62.0799,       396,
   62.1001,       373,
   62.1203,       341,
   62.1406,       360,
   62.1608,       341,
    62.181,       331,
   62.2012,       335,
   62.2214,       340,
   62.2417,       397,
   62.2619,       431,
   62.2821,       421,
   62.3023,       527,
   62.3225,       595,
   62.3427,       653,
    62.363,       734,
   62.3832,       717,
   62.4034,       790,
   62.4236,       792,
   62.4438,       834,
   62.4641,       839,
   62.4843,       789,
   62.5045,       695,
   62.5247,       732,
   62.5449,       610,
   62.5652,       606,
   62.5854,       557,
   62.6056,       538,
   62.6258,       507,
    62.646,       484,
   62.6663,       371,
   62.6865,       350,
   62.7067,       352,
   62.7269,       286,
   62.7471,       275,
   62.7673,       299,
   62.7876,       265,
   62.8078,       238,
    62.828,       231,
   62.8482,       241,
   62.8684,       228,
   62.8887,       246,
   62.9089,       233,
   62.9291,       212,
   62.9493,       243,
   62.9695,       253,
   62.9898,       280,
     63.01,       209,
   63.0302,       204,
   63.0504,       219,
   63.0706,       217,
   63.0908,       217,
   63.1111,       250,
   63.1313,       217,
   63.1515,       215,
   63.1717,       178,
   63.1919,       185,
   63.2122,       201,
   63.2324,       201,
   63.2526,       222,
   63.2728,       229,
    63.293,       215,
   63.3133,       200,
   63.3335,       200,
   63.3537,       216,
   63.3739,       213,
   63.3941,       222,
   63.4143,       192,
   63.4346,       244,
   63.4548,       235,
    63.475,       238,
   63.4952,       264,
   63.5154,       295,
   63.5357,       337,
   63.5559,       343,
   63.5761,       329,
   63.5963,       327,
   63.6165,       341,
   63.6368,       305,
    63.657,       296,
   63.6772,       291,
   63.6974,       279,
   63.7176,       299,
   63.7378,       296,
   63.7581,       283,
   63.7783,       258,
   63.7985,       252,
   63.8187,       242,
   63.8389,       227,
   63.8592,       223,
   63.8794,       248,
   63.8996,       249,
   63.9198,       210,
     63.94,       194,
   63.9603,       226,
   63.9805,       204,
   64.0007,       189,
   64.0209,       218,
   64.0411,       213,
   64.0613,       216,
   64.0816,       210,
   64.1018,       218,
    64.122,       210,
   64.1422,       190,
   64.1624,       173,
   64.1827,       186,
   64.2029,       165,
   64.2231,       166,
   64.2433,       167,
   64.2635,       172,
   64.2838,       198,
    64.304,       189,
   64.3242,       203,
   64.3444,       200,
   64.3646,       208,
   64.3848,       198,
   64.4051,       193,
   64.4253,       193,
   64.4455,       209,
   64.4657,       179,
   64.4859,       187,
   64.5062,       209,
   64.5264,       168,
   64.5466,       207,
   64.5668,       192,
    64.587,       194,
   64.6073,       183,
   64.6275,       186,
   64.6477,       194,
   64.6679,       181,
   64.6881,       208,
   64.7083,       192,
   64.7286,       193,
   64.7488,       176,
    64.769,       179,
   64.7892,       199,
   64.8094,       214,
   64.8297,       158,
   64.8499,       205,
   64.8701,       196,
   64.8903,       214,
   64.9105,       202,
   64.9308,       201,
    64.951,       200,
   64.9712,       181,
   64.9914,       181,
   65.0116,       181,
   65.0318,       204,
   65.0521,       192,
   65.0723,       201,
   65.0925,       198,
   65.1127,       207,
   65.1329,       199,
   65.1532,       208,
   65.1734,       169,
   65.1936,       189,
   65.2138,       185,
    65.234,       182,
   65.2543,       173,
   65.2745,       178,
   65.2947,       185,
   65.3149,       186,
   65.3351,       180,
   65.3553,       185,
   65.3756,       200,
   65.3958,       173,
    65.416,       195,
   65.4362,       176,
   65.4564,       156,
   65.4767,       174,
   65.4969,       168,
   65.5171,       162,
   65.5373,       166,
   65.5575,       178,
   65.5778,       189,
    65.598,       198,
   65.6182,       180,
   65.6384,       174,
   65.6586,       175,
   65.6788,       176,
   65.6991,       191,
   65.7193,       180,
   65.7395,       197,
   65.7597,       186,
   65.7799,       190,
   65.8002,       193,
   65.8204,       168,
   65.8406,       194,
   65.8608,       172,
    65.881,       180,
   65.9013,       184,
   65.9215,       197,
   65.9417,       190,
   65.9619,       199,
   65.9821,       194,
   66.0023,       189,
   66.0226,       191,
   66.0428,       178,
    66.063,       204,
   66.0832,       177,
   66.1034,       219,
   66.1237,       218,
   66.1439,       214,
   66.1641,       225,
   66.1843,       233,
   66.2045,       255,
   66.2248,       283,
    66.245,       276,
   66.2652,       256,
   66.2854,       291,
   66.3056,       276,
   66.3258,       277,
   66.3461,       243,
   66.3663,       275,
   66.3865,       288,
   66.4067,       245,
   66.4269,       243,
   66.4472,       263,
   66.4674,       233,
   66.4876,       264,
   66.5078,       251,
    66.528,       254,
   66.5483,       257,
   66.5685,       288,
   66.5887,       302,
   66.6089,       322,
   66.6291,       337,
   66.6493,       377,
   66.6696,       388,
   66.6898,       370,
     66.71,       447,
   66.7302,       445,
   66.7504,       438,
   66.7707,       412,
   66.7909,       426,
   66.8111,       387,
   66.8313,       401,
   66.8515,       375,
   66.8718,       362,
    66.892,       388,
   66.9122,       334,
   66.9324,       324,
   66.9526,       297,
   66.9728,       284,
   66.9931,       299,
   67.0133,       253,
   67.0335,       279,
   67.0537,       276,
   67.0739,       304,
   67.0942,       289,
   67.1144,       302,
   67.1346,       247,
   67.1548,       251,
    67.175,       228,
   67.1953,       252,
   67.2155,       231,
   67.2357,       232,
   67.2559,       205,
   67.2761,       220,
   67.2963,       205,
   67.3166,       192,
   67.3368,       185,
    67.357,       211,
   67.3772,       173,
   67.3974,       224,
   67.4177,       202,
   67.4379,       185,
   67.4581,       186,
   67.4783,       187,
   67.4985,       186,
   67.5188,       178,
    67.539,       185,
   67.5592,       183,
   67.5794,       207,
   67.5996,       183,
   67.6198,       186,
   67.6401,       184,
   67.6603,       168,
   67.6805,       202,
   67.7007,       179,
   67.7209,       182,
   67.7412,       218,
   67.7614,       187,
   67.7816,       195,
   67.8018,       193,
    67.822,       176,
   67.8423,       197,
   67.8625,       212,
   67.8827,       195,
   67.9029,       233,
   67.9231,       244,
   67.9433,       218,
   67.9636,       195,
   67.9838,       216,
    68.004,       216,
   68.0242,       201,
   68.0444,       202,
   68.0647,       207,
   68.0849,       217,
   68.1051,       242,
   68.1253,       197,
   68.1455,       236,
   68.1658,       190,
    68.186,       193,
   68.2062,       179,
   68.2264,       180,
   68.2466,       197,
   68.2668,       179,
   68.2871,       192,
   68.3073,       194,
   68.3275,       184,
   68.3477,       179,
   68.3679,       169,
   68.3882,       183,
   68.4084,       179,
   68.4286,       204,
   68.4488,       195,
    68.469,       175,
   68.4893,       171,
   68.5095,       205,
   68.5297,       178,
   68.5499,       171,
   68.5701,       185,
   68.5903,       193,
   68.6106,       201,
   68.6308,       186,
    68.651,       172,
   68.6712,       203,
   68.6914,       181,
   68.7117,       214,
   68.7319,       173,
   68.7521,       212,
   68.7723,       203,
   68.7925,       188,
   68.8128,       203,
    68.833,       205,
   68.8532,       218,
   68.8734,       188,
   68.8936,       216,
   68.9138,       211,
   68.9341,       191,
   68.9543,       222,
   68.9745,       231,
   68.9947,       188,
   69.0149,       214,
   69.0352,       191,
   69.0554,       213,
   69.0756,       188,
   69.0958,       177,
    69.116,       196,
   69.1363,       174,
   69.1565,       202,
   69.1767,       193,
   69.1969,       217,
   69.2171,       197,
   69.2373,       186,
   69.2576,       215,
   69.2778,       214,
    69.298,       197,
   69.3182,       199,
   69.3384,       194,
   69.3587,       165,
   69.3789,       195,
   69.3991,       186,
   69.4193,       210,
   69.4395,       191,
   69.4598,       197,
     69.48,       213,
   69.5002,       215,
   69.5204,       191,
   69.5406,       176,
   69.5608,       173,
   69.5811,       200,
   69.6013,       188,
   69.6215,       200,
   69.6417,       192,
   69.6619,       183,
   69.6822,       215,
   69.7024,       220,
   69.7226,       216,
   69.7428,       226,
    69.763,       191,
   69.7833,       236,
   69.8035,       242,
   69.8237,       225,
   69.8439,       224,
   69.8641,       207,
   69.8843,       234,
   69.9046,       235,
   69.9248,       239,
    69.945,       257,
   69.9652,       256,
   69.9854,       305,
   70.0057,       341,
