;RAW4.00
[RawHeader]
Date=11/19/2019
EstimatedTotalTime=1742.23
FurtherDQLReading=0
HardwareIndicator=65519
MeasuredTotalTime=1742.23
MeasurementFlag=1
NumberOfMeasuredRanges=1
NumberOfRanges=1
Time=20:00:34

[VarInfo]
Type=USER
Flags=0
Value=Bruker Service

[VarInfo]
Type=SAMPLEID
Flags=0
Value=Commander Sample ID

[VarInfo]
Type=COMMENT
Flags=0
Value=

[VarInfo]
Type=UTF
Flags=0
Value=

[VarInfo]
Type=CREATOR
Flags=0
Value=BrmlToV4Converter

[VarInfo]
Type=CREATOR_VERSION
Flags=0
Value=7.3.0.0

[HardwareConfiguration]
AbsorptionFactor=9999
ActivateAbsorber=0
Alpha1=1.78897
Alpha2=1.79285
AlphaAverage=1.79026
AlphaRatio=0.5
Analyzer=0
Anode=Co
AntiScatteringSlit=9999
BeamOpticsFlags=0
Beta=1.62079
BetaRelativeIntensity=0
DeactivateAbsorber=0
DetectorSlit=9999
DivergenceSlit=1
GoniometerControl=0
GoniometerDiameter=282
GoniometerModel=256
GoniometerStage=7
Monochromator=0
NearSampleSlit=9999
PrimarySollerSlit=9999
SampleChanger=0
SecondSollerSlit=9999
SynchronousAxis=0
ThinFilmAttachment=9999
WaveUnit=A

[RangeHeader]
ActuallyUsedLambda=1.79026
AdditionalDetectorMask=257
DataRecordLength=4
DelayTime=0
DisplayPlaneNumber=0
EstimatedScanTime=1742
ExtraParametersMask=0
GeneratorCurrent=10
GeneratorVoltage=30
Increment=0.0202188
Increment3=0
NumberOfCompletedData=3216
NumberOfCounts=1
NumberOfDetectors=0
NumberOfDrives=2
NumberOfEncoderDrives=0
NumberOfMeasuredData=3216
NumberOfVaryingParameters=0
RangeStartTime=0
RotationSpeed=1
ScanMode=1
ScanType=Locked Coupled
SimulatedMeasConditions=0
SlitChangerIn=0
SmootingWidth=0
Start=5.00234
Steps=3216
SynchronousRotation=0
Time=82.5

[VarInfo]
Type=PSD_DISCRIM
Flags=0
Value=0.11;0.25

[PSD]
ActualTwoTheta=9999
FirstUsedChannel=0
FixedPSD=0
PSDOpening=5.00414
PSDType=5

[Drive]
DriveFlags=1
DriveName=2Theta
DriveNumber=2
DriveOffset=0
OffsetIndex=0
OscillationAmplitude=0
OscillationSpeed=0
StartPosition=5.00234

[Drive]
DriveFlags=1
DriveName=Theta
DriveNumber=1
DriveOffset=0
OffsetIndex=0
OscillationAmplitude=0
OscillationSpeed=0
StartPosition=2.50117

[Data]
     Angle,       PSD,
   5.00234,      3374,
   5.02256,      3305,
   5.04278,      3234,
     5.063,      3318,
   5.08322,      3380,
   5.10344,      3114,
   5.12365,      3112,
   5.14387,      3132,
   5.16409,      2995,
   5.18431,      2972,
   5.20453,      2889,
   5.22475,      2866,
   5.24497,      2847,
   5.26519,      2952,
    5.2854,      2840,
   5.30562,      2864,
   5.32584,      2752,
   5.34606,      2727,
   5.36628,      2836,
    5.3865,      2654,
   5.40672,      2713,
   5.42694,      2695,
   5.44715,      2664,
   5.46737,      2593,
   5.48759,      2626,
   5.50781,      2586,
   5.52803,      2642,
   5.54825,      2569,
   5.56847,      2559,
   5.58869,      2524,
    5.6089,      2456,
   5.62912,      2425,
   5.64934,      2365,
   5.66956,      2283,
   5.68978,      2457,
      5.71,      2381,
   5.73022,      2247,
   5.75044,      2297,
   5.77065,      2272,
   5.79087,      2254,
   5.81109,      2208,
   5.83131,      2210,
   5.85153,      2140,
   5.87175,      2171,
   5.89197,      2200,
   5.91219,      2110,
    5.9324,      2045,
   5.95262,      2139,
   5.97284,      1968,
   5.99306,      2072,
   6.01328,      1986,
    6.0335,      1947,
   6.05372,      1953,
   6.07394,      1869,
   6.09415,      1912,
   6.11437,      1847,
   6.13459,      1826,
   6.15481,      1855,
   6.17503,      1812,
   6.19525,      1874,
   6.21547,      1902,
   6.23569,      1875,
    6.2559,      1761,
   6.27612,      1664,
   6.29634,      1770,
   6.31656,      1851,
   6.33678,      1725,
     6.357,      1746,
   6.37722,      1725,
   6.39744,      1680,
   6.41765,      1644,
   6.43787,      1691,
   6.45809,      1595,
   6.47831,      1620,
   6.49853,      1601,
   6.51875,      1563,
   6.53897,      1555,
   6.55919,      1567,
    6.5794,      1577,
   6.59962,      1517,
   6.61984,      1527,
   6.64006,      1441,
   6.66028,      1469,
    6.6805,      1450,
   6.70072,      1488,
   6.72094,      1426,
   6.74116,      1486,
   6.76137,      1436,
   6.78159,      1392,
   6.80181,      1380,
   6.82203,      1369,
   6.84225,      1327,
   6.86247,      1434,
   6.88269,      1352,
   6.90291,      1321,
   6.92312,      1364,
   6.94334,      1267,
   6.96356,      1225,
   6.98378,      1284,
     7.004,      1330,
   7.02422,      1222,
   7.04444,      1261,
   7.06466,      1353,
   7.08487,      1197,
   7.10509,      1235,
   7.12531,      1254,
   7.14553,      1134,
   7.16575,      1305,
   7.18597,      1140,
   7.20619,      1159,
   7.22641,      1168,
   7.24662,      1125,
   7.26684,      1157,
   7.28706,      1154,
   7.30728,      1100,
    7.3275,      1143,
   7.34772,      1129,
   7.36794,      1057,
   7.38816,      1079,
   7.40837,      1101,
   7.42859,      1096,
   7.44881,      1050,
   7.46903,      1089,
   7.48925,      1060,
   7.50947,      1027,
   7.52969,      1020,
   7.54991,       994,
   7.57012,      1095,
   7.59034,      1008,
   7.61056,      1041,
   7.63078,      1008,
     7.651,       967,
   7.67122,      1021,
   7.69144,       947,
   7.71166,       933,
   7.73187,       940,
   7.75209,      1000,
   7.77231,       939,
   7.79253,       932,
   7.81275,       924,
   7.83297,       928,
   7.85319,       934,
   7.87341,       899,
   7.89362,       890,
   7.91384,       861,
   7.93406,       882,
   7.95428,       827,
    7.9745,       835,
   7.99472,       905,
   8.01494,       858,
   8.03516,       822,
   8.05537,       828,
   8.07559,       845,
   8.09581,       809,
   8.11603,       810,
   8.13625,       825,
   8.15647,       816,
   8.17669,       832,
   8.19691,       763,
   8.21712,       762,
   8.23734,       798,
   8.25756,       798,
   8.27778,       784,
     8.298,       733,
   8.31822,       800,
   8.33844,       782,
   8.35866,       745,
   8.37887,       715,
   8.39909,       736,
   8.41931,       805,
   8.43953,       728,
   8.45975,       716,
   8.47997,       667,
   8.50019,       674,
   8.52041,       711,
   8.54062,       697,
   8.56084,       690,
   8.58106,       718,
   8.60128,       680,
    8.6215,       651,
   8.64172,       676,
   8.66194,       684,
   8.68216,       702,
   8.70237,       676,
   8.72259,       636,
   8.74281,       627,
   8.76303,       710,
   8.78325,       684,
   8.80347,       596,
   8.82369,       667,
   8.84391,       647,
   8.86413,       645,
   8.88434,       632,
   8.90456,       627,
   8.92478,       637,
     8.945,       586,
   8.96522,       580,
   8.98544,       574,
   9.00566,       619,
   9.02588,       576,
   9.04609,       588,
   9.06631,       613,
   9.08653,       578,
   9.10675,       576,
   9.12697,       616,
   9.14719,       581,
   9.16741,       616,
   9.18763,       571,
   9.20784,       515,
   9.22806,       579,
   9.24828,       600,
    9.2685,       546,
   9.28872,       579,
   9.30894,       562,
   9.32916,       569,
   9.34938,       567,
   9.36959,       585,
   9.38981,       518,
   9.41003,       573,
   9.43025,       552,
   9.45047,       524,
   9.47069,       551,
   9.49091,       547,
   9.51113,       518,
   9.53134,       563,
   9.55156,       552,
   9.57178,       513,
     9.592,       515,
   9.61222,       469,
   9.63244,       478,
   9.65266,       564,
   9.67288,       516,
   9.69309,       511,
   9.71331,       493,
   9.73353,       529,
   9.75375,       505,
   9.77397,       483,
   9.79419,       508,
   9.81441,       484,
   9.83463,       474,
   9.85484,       542,
   9.87506,       468,
   9.89528,       501,
    9.9155,       508,
   9.93572,       484,
   9.95594,       539,
   9.97616,       478,
   9.99638,       494,
   10.0166,       505,
   10.0368,       515,
    10.057,       492,
   10.0773,       510,
   10.0975,       519,
   10.1177,       483,
   10.1379,       458,
   10.1581,       475,
   10.1783,       489,
   10.1986,       469,
   10.2188,       461,
    10.239,       497,
   10.2592,       519,
   10.2794,       500,
   10.2997,       505,
   10.3199,       479,
   10.3401,       472,
   10.3603,       465,
   10.3805,       508,
   10.4008,       448,
    10.421,       457,
   10.4412,       517,
   10.4614,       473,
   10.4816,       494,
   10.5018,       454,
   10.5221,       446,
   10.5423,       461,
   10.5625,       440,
   10.5827,       486,
   10.6029,       429,
   10.6232,       487,
   10.6434,       448,
   10.6636,       495,
   10.6838,       464,
    10.704,       442,
   10.7243,       455,
   10.7445,       450,
   10.7647,       472,
   10.7849,       466,
   10.8051,       446,
   10.8253,       461,
   10.8456,       475,
   10.8658,       463,
    10.886,       426,
   10.9062,       472,
   10.9264,       424,
   10.9467,       461,
   10.9669,       429,
   10.9871,       434,
   11.0073,       421,
   11.0275,       494,
   11.0478,       432,
    11.068,       483,
   11.0882,       453,
   11.1084,       463,
   11.1286,       483,
   11.1488,       448,
   11.1691,       399,
   11.1893,       459,
   11.2095,       477,
   11.2297,       442,
   11.2499,       455,
   11.2702,       428,
   11.2904,       439,
   11.3106,       447,
   11.3308,       426,
    11.351,       418,
   11.3713,       432,
   11.3915,       445,
   11.4117,       431,
   11.4319,       428,
   11.4521,       410,
   11.4723,       423,
   11.4926,       435,
   11.5128,       445,
    11.533,       436,
   11.5532,       444,
   11.5734,       445,
   11.5937,       475,
   11.6139,       453,
   11.6341,       463,
   11.6543,       402,
   11.6745,       417,
   11.6948,       411,
    11.715,       434,
   11.7352,       463,
   11.7554,       436,
   11.7756,       442,
   11.7958,       440,
   11.8161,       396,
   11.8363,       441,
   11.8565,       434,
   11.8767,       448,
   11.8969,       413,
   11.9172,       432,
   11.9374,       422,
   11.9576,       455,
   11.9778,       465,
    11.998,       419,
   12.0183,       447,
   12.0385,       447,
   12.0587,       423,
   12.0789,       463,
   12.0991,       440,
   12.1193,       471,
   12.1396,       431,
   12.1598,       436,
     12.18,       402,
   12.2002,       459,
   12.2204,       422,
   12.2407,       425,
   12.2609,       421,
   12.2811,       407,
   12.3013,       417,
   12.3215,       423,
   12.3418,       454,
    12.362,       458,
   12.3822,       433,
   12.4024,       404,
   12.4226,       424,
   12.4428,       414,
   12.4631,       433,
   12.4833,       444,
   12.5035,       433,
   12.5237,       477,
   12.5439,       393,
   12.5642,       426,
   12.5844,       415,
   12.6046,       409,
   12.6248,       411,
    12.645,       409,
   12.6653,       405,
   12.6855,       440,
   12.7057,       403,
   12.7259,       400,
   12.7461,       414,
   12.7663,       410,
   12.7866,       394,
   12.8068,       457,
    12.827,       420,
   12.8472,       432,
   12.8674,       386,
   12.8877,       398,
   12.9079,       466,
   12.9281,       412,
   12.9483,       393,
   12.9685,       462,
   12.9888,       398,
    13.009,       431,
   13.0292,       424,
   13.0494,       423,
   13.0696,       436,
   13.0898,       437,
   13.1101,       445,
   13.1303,       407,
   13.1505,       428,
   13.1707,       414,
   13.1909,       382,
   13.2112,       403,
   13.2314,       414,
   13.2516,       406,
   13.2718,       397,
    13.292,       440,
   13.3123,       435,
   13.3325,       396,
   13.3527,       422,
   13.3729,       403,
   13.3931,       434,
   13.4133,       400,
   13.4336,       403,
   13.4538,       427,
    13.474,       454,
   13.4942,       406,
   13.5144,       418,
   13.5347,       400,
   13.5549,       438,
   13.5751,       424,
   13.5953,       431,
   13.6155,       423,
   13.6358,       451,
    13.656,       433,
   13.6762,       474,
   13.6964,       538,
   13.7166,       482,
   13.7368,       505,
   13.7571,       500,
   13.7773,       561,
   13.7975,       564,
   13.8177,       599,
   13.8379,       622,
   13.8582,       664,
   13.8784,       638,
   13.8986,       599,
   13.9188,       551,
    13.939,       538,
   13.9593,       407,
   13.9795,       434,
   13.9997,       411,
   14.0199,       399,
   14.0401,       426,
   14.0603,       371,
   14.0806,       412,
   14.1008,       437,
    14.121,       404,
   14.1412,       435,
   14.1614,       403,
   14.1817,       421,
   14.2019,       371,
   14.2221,       402,
   14.2423,       416,
   14.2625,       387,
   14.2828,       400,
    14.303,       382,
   14.3232,       411,
   14.3434,       375,
   14.3636,       424,
   14.3838,       451,
   14.4041,       426,
   14.4243,       430,
   14.4445,       394,
   14.4647,       388,
   14.4849,       415,
   14.5052,       407,
   14.5254,       363,
   14.5456,       370,
   14.5658,       417,
    14.586,       401,
   14.6063,       391,
   14.6265,       343,
   14.6467,       378,
   14.6669,       417,
   14.6871,       390,
   14.7073,       416,
   14.7276,       424,
   14.7478,       408,
    14.768,       394,
   14.7882,       389,
   14.8084,       378,
   14.8287,       385,
   14.8489,       410,
   14.8691,       328,
   14.8893,       408,
   14.9095,       391,
   14.9298,       426,
     14.95,       410,
   14.9702,       393,
   14.9904,       398,
   15.0106,       385,
   15.0308,       411,
   15.0511,       417,
   15.0713,       387,
   15.0915,       382,
   15.1117,       400,
   15.1319,       433,
   15.1522,       372,
   15.1724,       391,
   15.1926,       363,
   15.2128,       360,
    15.233,       417,
   15.2533,       404,
   15.2735,       403,
   15.2937,       361,
   15.3139,       400,
   15.3341,       374,
   15.3543,       382,
   15.3746,       398,
   15.3948,       372,
    15.415,       353,
   15.4352,       341,
   15.4554,       365,
   15.4757,       383,
   15.4959,       366,
   15.5161,       383,
   15.5363,       385,
   15.5565,       414,
   15.5768,       396,
    15.597,       358,
   15.6172,       374,
   15.6374,       370,
   15.6576,       379,
   15.6778,       400,
   15.6981,       384,
   15.7183,       411,
   15.7385,       395,
   15.7587,       424,
   15.7789,       392,
   15.7992,       380,
   15.8194,       388,
   15.8396,       337,
   15.8598,       402,
     15.88,       372,
   15.9003,       381,
   15.9205,       370,
   15.9407,       371,
   15.9609,       372,
   15.9811,       403,
   16.0013,       378,
   16.0216,       405,
   16.0418,       400,
    16.062,       352,
   16.0822,       377,
   16.1024,       359,
   16.1227,       364,
   16.1429,       370,
   16.1631,       364,
   16.1833,       349,
   16.2035,       383,
   16.2238,       354,
    16.244,       393,
   16.2642,       389,
   16.2844,       407,
   16.3046,       373,
   16.3248,       380,
   16.3451,       344,
   16.3653,       399,
   16.3855,       384,
   16.4057,       385,
   16.4259,       364,
   16.4462,       373,
   16.4664,       370,
   16.4866,       360,
   16.5068,       358,
    16.527,       388,
   16.5473,       389,
   16.5675,       396,
   16.5877,       385,
   16.6079,       344,
   16.6281,       365,
   16.6483,       378,
   16.6686,       349,
   16.6888,       340,
    16.709,       355,
   16.7292,       380,
   16.7494,       394,
   16.7697,       370,
   16.7899,       380,
   16.8101,       387,
   16.8303,       384,
   16.8505,       335,
   16.8708,       393,
    16.891,       377,
   16.9112,       395,
   16.9314,       390,
   16.9516,       360,
   16.9718,       421,
   16.9921,       437,
   17.0123,       382,
   17.0325,       361,
   17.0527,       400,
   17.0729,       368,
   17.0932,       383,
   17.1134,       367,
   17.1336,       375,
   17.1538,       342,
    17.174,       351,
   17.1943,       361,
   17.2145,       347,
   17.2347,       364,
   17.2549,       361,
   17.2751,       355,
   17.2953,       341,
   17.3156,       363,
   17.3358,       362,
    17.356,       357,
   17.3762,       324,
   17.3964,       408,
   17.4167,       345,
   17.4369,       410,
   17.4571,       382,
   17.4773,       384,
   17.4975,       369,
   17.5178,       338,
    17.538,       373,
   17.5582,       323,
   17.5784,       362,
   17.5986,       315,
   17.6188,       384,
   17.6391,       356,
   17.6593,       410,
   17.6795,       397,
   17.6997,       348,
   17.7199,       375,
   17.7402,       359,
   17.7604,       355,
   17.7806,       373,
   17.8008,       356,
    17.821,       363,
   17.8413,       373,
   17.8615,       356,
   17.8817,       380,
   17.9019,       364,
   17.9221,       362,
   17.9423,       359,
   17.9626,       374,
   17.9828,       370,
    18.003,       375,
   18.0232,       339,
   18.0434,       342,
   18.0637,       346,
   18.0839,       371,
   18.1041,       377,
   18.1243,       385,
   18.1445,       331,
   18.1648,       320,
    18.185,       360,
   18.2052,       340,
   18.2254,       351,
   18.2456,       340,
   18.2658,       353,
   18.2861,       336,
   18.3063,       354,
   18.3265,       327,
   18.3467,       385,
   18.3669,       379,
   18.3872,       379,
   18.4074,       331,
   18.4276,       343,
   18.4478,       323,
    18.468,       334,
   18.4883,       356,
   18.5085,       338,
   18.5287,       341,
   18.5489,       360,
   18.5691,       341,
   18.5893,       363,
   18.6096,       328,
   18.6298,       351,
     18.65,       344,
   18.6702,       371,
   18.6904,       346,
   18.7107,       339,
   18.7309,       338,
   18.7511,       365,
   18.7713,       337,
   18.7915,       389,
   18.8118,       324,
    18.832,       323,
   18.8522,       361,
   18.8724,       350,
   18.8926,       334,
   18.9128,       321,
   18.9331,       331,
   18.9533,       317,
   18.9735,       337,
   18.9937,       315,
   19.0139,       287,
   19.0342,       315,
   19.0544,       358,
   19.0746,       390,
   19.0948,       331,
    19.115,       351,
   19.1353,       349,
   19.1555,       307,
   19.1757,       346,
   19.1959,       342,
   19.2161,       347,
   19.2363,       344,
   19.2566,       336,
   19.2768,       327,
    19.297,       332,
   19.3172,       356,
   19.3374,       337,
   19.3577,       333,
   19.3779,       351,
   19.3981,       360,
   19.4183,       329,
   19.4385,       314,
   19.4588,       333,
    19.479,       297,
   19.4992,       310,
   19.5194,       343,
   19.5396,       374,
   19.5599,       340,
   19.5801,       327,
   19.6003,       353,
   19.6205,       352,
   19.6407,       343,
   19.6609,       359,
   19.6812,       342,
   19.7014,       308,
   19.7216,       349,
   19.7418,       332,
    19.762,       322,
   19.7823,       354,
   19.8025,       322,
   19.8227,       311,
   19.8429,       354,
   19.8631,       327,
   19.8834,       338,
   19.9036,       335,
   19.9238,       293,
    19.944,       310,
   19.9642,       312,
   19.9844,       322,
   20.0047,       326,
   20.0249,       314,
   20.0451,       347,
   20.0653,       341,
   20.0855,       357,
   20.1058,       300,
    20.126,       308,
   20.1462,       339,
   20.1664,       341,
   20.1866,       337,
   20.2069,       332,
   20.2271,       300,
   20.2473,       337,
   20.2675,       300,
   20.2877,       357,
   20.3079,       355,
   20.3282,       338,
   20.3484,       304,
   20.3686,       324,
   20.3888,       328,
    20.409,       292,
   20.4293,       336,
   20.4495,       326,
   20.4697,       331,
   20.4899,       325,
   20.5101,       328,
   20.5304,       318,
   20.5506,       317,
   20.5708,       324,
    20.591,       335,
   20.6112,       315,
   20.6314,       342,
   20.6517,       363,
   20.6719,       329,
   20.6921,       328,
   20.7123,       347,
   20.7325,       307,
   20.7528,       348,
    20.773,       314,
   20.7932,       307,
   20.8134,       301,
   20.8336,       355,
   20.8539,       313,
   20.8741,       320,
   20.8943,       327,
   20.9145,       327,
   20.9347,       341,
   20.9549,       296,
   20.9752,       331,
   20.9954,       343,
   21.0156,       299,
   21.0358,       306,
    21.056,       304,
   21.0763,       308,
   21.0965,       312,
   21.1167,       302,
   21.1369,       285,
   21.1571,       328,
   21.1774,       316,
   21.1976,       314,
   21.2178,       337,
    21.238,       285,
   21.2582,       323,
   21.2784,       335,
   21.2987,       337,
   21.3189,       312,
   21.3391,       302,
   21.3593,       308,
   21.3795,       303,
   21.3998,       321,
     21.42,       307,
   21.4402,       333,
   21.4604,       330,
   21.4806,       295,
   21.5009,       300,
   21.5211,       296,
   21.5413,       316,
   21.5615,       297,
   21.5817,       315,
   21.6019,       305,
   21.6222,       318,
   21.6424,       320,
   21.6626,       321,
   21.6828,       317,
    21.703,       287,
   21.7233,       298,
   21.7435,       304,
   21.7637,       314,
   21.7839,       361,
   21.8041,       305,
   21.8244,       335,
   21.8446,       336,
   21.8648,       341,
    21.885,       337,
   21.9052,       310,
   21.9254,       291,
   21.9457,       322,
   21.9659,       340,
   21.9861,       315,
   22.0063,       303,
   22.0265,       334,
   22.0468,       352,
    22.067,       345,
   22.0872,       323,
   22.1074,       307,
   22.1276,       329,
   22.1479,       307,
   22.1681,       295,
   22.1883,       326,
   22.2085,       320,
   22.2287,       356,
   22.2489,       318,
   22.2692,       338,
   22.2894,       339,
   22.3096,       341,
   22.3298,       359,
     22.35,       331,
   22.3703,       323,
   22.3905,       292,
   22.4107,       326,
   22.4309,       343,
   22.4511,       309,
   22.4714,       345,
   22.4916,       335,
   22.5118,       326,
    22.532,       277,
   22.5522,       288,
   22.5724,       319,
   22.5927,       322,
   22.6129,       337,
   22.6331,       307,
   22.6533,       341,
   22.6735,       291,
   22.6938,       297,
    22.714,       327,
   22.7342,       336,
   22.7544,       317,
   22.7746,       337,
   22.7949,       330,
   22.8151,       305,
   22.8353,       307,
   22.8555,       307,
   22.8757,       323,
   22.8959,       332,
   22.9162,       335,
   22.9364,       293,
   22.9566,       377,
   22.9768,       331,
    22.997,       328,
   23.0173,       309,
   23.0375,       332,
   23.0577,       322,
   23.0779,       327,
   23.0981,       341,
   23.1184,       297,
   23.1386,       326,
   23.1588,       303,
    23.179,       323,
   23.1992,       314,
   23.2194,       306,
   23.2397,       334,
   23.2599,       332,
   23.2801,       316,
   23.3003,       330,
   23.3205,       312,
   23.3408,       312,
    23.361,       307,
   23.3812,       286,
   23.4014,       343,
   23.4216,       282,
   23.4419,       337,
   23.4621,       317,
   23.4823,       353,
   23.5025,       319,
   23.5227,       340,
   23.5429,       298,
   23.5632,       323,
   23.5834,       283,
   23.6036,       303,
   23.6238,       299,
    23.644,       298,
   23.6643,       309,
   23.6845,       305,
   23.7047,       287,
   23.7249,       323,
   23.7451,       324,
   23.7654,       321,
   23.7856,       314,
   23.8058,       286,
    23.826,       287,
   23.8462,       314,
   23.8664,       335,
   23.8867,       315,
   23.9069,       298,
   23.9271,       340,
   23.9473,       335,
   23.9675,       323,
   23.9878,       295,
    24.008,       336,
   24.0282,       315,
   24.0484,       350,
   24.0686,       306,
   24.0889,       320,
   24.1091,       303,
   24.1293,       304,
   24.1495,       321,
   24.1697,       330,
   24.1899,       311,
   24.2102,       333,
   24.2304,       306,
   24.2506,       340,
   24.2708,       329,
    24.291,       331,
   24.3113,       331,
   24.3315,       351,
   24.3517,       342,
   24.3719,       357,
   24.3921,       352,
   24.4124,       406,
   24.4326,       383,
   24.4528,       388,
    24.473,       420,
   24.4932,       371,
   24.5134,       412,
   24.5337,       361,
   24.5539,       367,
   24.5741,       302,
   24.5943,       334,
   24.6145,       311,
   24.6348,       305,
    24.655,       311,
   24.6752,       328,
   24.6954,       326,
   24.7156,       317,
   24.7359,       332,
   24.7561,       296,
   24.7763,       353,
   24.7965,       344,
   24.8167,       413,
   24.8369,       425,
   24.8572,       437,
   24.8774,       472,
   24.8976,       455,
   24.9178,       418,
    24.938,       388,
   24.9583,       348,
   24.9785,       365,
   24.9987,       308,
   25.0189,       271,
   25.0391,       318,
   25.0594,       329,
   25.0796,       282,
   25.0998,       308,
     25.12,       318,
   25.1402,       289,
   25.1604,       324,
   25.1807,       307,
   25.2009,       319,
   25.2211,       263,
   25.2413,       308,
   25.2615,       320,
   25.2818,       304,
    25.302,       275,
   25.3222,       290,
   25.3424,       316,
   25.3626,       289,
   25.3829,       314,
   25.4031,       273,
   25.4233,       333,
   25.4435,       284,
   25.4637,       310,
   25.4839,       278,
   25.5042,       311,
   25.5244,       306,
   25.5446,       299,
   25.5648,       307,
    25.585,       286,
   25.6053,       327,
   25.6255,       277,
   25.6457,       302,
   25.6659,       295,
   25.6861,       297,
   25.7064,       304,
   25.7266,       304,
   25.7468,       283,
    25.767,       311,
   25.7872,       288,
   25.8074,       284,
   25.8277,       275,
   25.8479,       290,
   25.8681,       271,
   25.8883,       294,
   25.9085,       289,
   25.9288,       288,
    25.949,       275,
   25.9692,       300,
   25.9894,       296,
   26.0096,       310,
   26.0299,       312,
   26.0501,       322,
   26.0703,       303,
   26.0905,       275,
   26.1107,       308,
   26.1309,       294,
   26.1512,       337,
   26.1714,       333,
   26.1916,       291,
   26.2118,       301,
    26.232,       311,
   26.2523,       328,
   26.2725,       349,
   26.2927,       351,
   26.3129,       344,
   26.3331,       364,
   26.3534,       322,
   26.3736,       314,
   26.3938,       275,
    26.414,       315,
   26.4342,       297,
   26.4544,       278,
   26.4747,       298,
   26.4949,       303,
   26.5151,       289,
   26.5353,       272,
   26.5555,       283,
   26.5758,       299,
    26.596,       281,
   26.6162,       288,
   26.6364,       304,
   26.6566,       273,
   26.6769,       299,
   26.6971,       286,
   26.7173,       301,
   26.7375,       275,
   26.7577,       307,
   26.7779,       310,
   26.7982,       256,
   26.8184,       281,
   26.8386,       256,
   26.8588,       284,
    26.879,       281,
   26.8993,       293,
   26.9195,       266,
   26.9397,       266,
   26.9599,       266,
   26.9801,       302,
   27.0004,       326,
   27.0206,       270,
   27.0408,       276,
    27.061,       301,
   27.0812,       286,
   27.1014,       273,
   27.1217,       318,
   27.1419,       276,
   27.1621,       284,
   27.1823,       291,
   27.2025,       255,
   27.2228,       282,
    27.243,       297,
   27.2632,       294,
   27.2834,       305,
   27.3036,       279,
   27.3239,       285,
   27.3441,       246,
   27.3643,       322,
   27.3845,       305,
   27.4047,       309,
   27.4249,       336,
   27.4452,       315,
   27.4654,       329,
   27.4856,       346,
   27.5058,       358,
    27.526,       343,
   27.5463,       310,
   27.5665,       336,
   27.5867,       391,
   27.6069,       340,
   27.6271,       330,
   27.6474,       334,
   27.6676,       321,
   27.6878,       323,
    27.708,       306,
   27.7282,       340,
   27.7484,       345,
   27.7687,       333,
   27.7889,       318,
   27.8091,       317,
   27.8293,       362,
   27.8495,       374,
   27.8698,       387,
     27.89,       382,
   27.9102,       409,
   27.9304,       372,
   27.9506,       416,
   27.9709,       435,
   27.9911,       347,
   28.0113,       335,
   28.0315,       330,
   28.0517,       331,
   28.0719,       307,
   28.0922,       327,
   28.1124,       304,
   28.1326,       288,
   28.1528,       292,
    28.173,       297,
   28.1933,       295,
   28.2135,       301,
   28.2337,       320,
   28.2539,       274,
   28.2741,       259,
   28.2944,       309,
   28.3146,       273,
   28.3348,       344,
    28.355,       268,
   28.3752,       268,
   28.3954,       279,
   28.4157,       274,
   28.4359,       274,
   28.4561,       278,
   28.4763,       247,
   28.4965,       273,
   28.5168,       282,
    28.537,       286,
   28.5572,       299,
   28.5774,       308,
   28.5976,       270,
   28.6179,       277,
   28.6381,       260,
   28.6583,       255,
   28.6785,       304,
   28.6987,       277,
   28.7189,       301,
   28.7392,       294,
   28.7594,       282,
   28.7796,       298,
   28.7998,       291,
     28.82,       253,
   28.8403,       301,
   28.8605,       319,
   28.8807,       305,
   28.9009,       328,
   28.9211,       333,
   28.9414,       360,
   28.9616,       337,
   28.9818,       326,
    29.002,       354,
   29.0222,       324,
   29.0424,       303,
   29.0627,       337,
   29.0829,       275,
   29.1031,       299,
   29.1233,       276,
   29.1435,       282,
   29.1638,       280,
    29.184,       278,
   29.2042,       310,
   29.2244,       305,
   29.2446,       296,
   29.2649,       286,
   29.2851,       311,
   29.3053,       268,
   29.3255,       304,
   29.3457,       279,
   29.3659,       305,
   29.3862,       260,
   29.4064,       291,
   29.4266,       293,
   29.4468,       267,
    29.467,       280,
   29.4873,       239,
   29.5075,       279,
   29.5277,       260,
   29.5479,       269,
   29.5681,       265,
   29.5884,       276,
   29.6086,       272,
   29.6288,       300,
    29.649,       284,
   29.6692,       296,
   29.6894,       291,
   29.7097,       300,
   29.7299,       286,
   29.7501,       267,
   29.7703,       310,
   29.7905,       272,
   29.8108,       287,
    29.831,       242,
   29.8512,       255,
   29.8714,       287,
   29.8916,       272,
   29.9119,       271,
   29.9321,       267,
   29.9523,       289,
   29.9725,       296,
   29.9927,       294,
   30.0129,       315,
   30.0332,       312,
   30.0534,       296,
   30.0736,       310,
   30.0938,       340,
    30.114,       338,
   30.1343,       319,
   30.1545,       327,
   30.1747,       350,
   30.1949,       328,
   30.2151,       341,
   30.2354,       327,
   30.2556,       363,
   30.2758,       370,
    30.296,       338,
   30.3162,       366,
   30.3365,       367,
   30.3567,       390,
   30.3769,       372,
   30.3971,       391,
   30.4173,       424,
   30.4375,       454,
   30.4578,       398,
    30.478,       416,
   30.4982,       421,
   30.5184,       497,
   30.5386,       467,
   30.5589,       521,
   30.5791,       506,
   30.5993,       540,
   30.6195,       588,
   30.6397,       643,
     30.66,       757,
   30.6802,       799,
   30.7004,       941,
   30.7206,      1321,
   30.7408,      1706,
    30.761,      2247,
   30.7813,      3080,
   30.8015,      4008,
   30.8217,      5082,
   30.8419,      6123,
   30.8621,      6454,
   30.8824,      6466,
   30.9026,      5963,
   30.9228,      4834,
    30.943,      3953,
   30.9632,      3033,
   30.9835,      2170,
   31.0037,      1471,
   31.0239,      1144,
   31.0441,       926,
   31.0643,       774,
   31.0845,       687,
   31.1048,       609,
    31.125,       585,
   31.1452,       605,
   31.1654,       535,
   31.1856,       512,
   31.2059,       470,
   31.2261,       473,
   31.2463,       467,
   31.2665,       446,
   31.2867,       429,
    31.307,       385,
   31.3272,       413,
   31.3474,       420,
   31.3676,       427,
   31.3878,       448,
    31.408,       430,
   31.4283,       400,
   31.4485,       404,
   31.4687,       372,
   31.4889,       402,
   31.5091,       392,
   31.5294,       401,
   31.5496,       403,
   31.5698,       458,
     31.59,       427,
   31.6102,       446,
   31.6305,       436,
   31.6507,       448,
   31.6709,       422,
   31.6911,       454,
   31.7113,       449,
   31.7315,       463,
   31.7518,       526,
    31.772,       510,
   31.7922,       554,
   31.8124,       541,
   31.8326,       583,
   31.8529,       651,
   31.8731,       781,
   31.8933,       883,
   31.9135,      1098,
   31.9337,      1419,
    31.954,      1781,
   31.9742,      2366,
   31.9944,      2973,
   32.0146,      3540,
   32.0348,      3854,
    32.055,      3851,
   32.0753,      3518,
   32.0955,      2885,
   32.1157,      2395,
   32.1359,      1906,
   32.1561,      1460,
   32.1764,      1115,
   32.1966,       927,
   32.2168,       757,
    32.237,       783,
   32.2572,       657,
   32.2775,       645,
   32.2977,       574,
   32.3179,       562,
   32.3381,       516,
   32.3583,       507,
   32.3785,       452,
   32.3988,       399,
    32.419,       426,
   32.4392,       362,
   32.4594,       362,
   32.4796,       353,
   32.4999,       333,
   32.5201,       356,
   32.5403,       330,
   32.5605,       345,
   32.5807,       327,
    32.601,       303,
   32.6212,       340,
   32.6414,       338,
   32.6616,       325,
   32.6818,       305,
    32.702,       320,
   32.7223,       311,
   32.7425,       313,
   32.7627,       316,
   32.7829,       293,
   32.8031,       286,
   32.8234,       286,
   32.8436,       258,
   32.8638,       292,
    32.884,       295,
   32.9042,       306,
   32.9245,       297,
   32.9447,       302,
   32.9649,       281,
   32.9851,       266,
   33.0053,       283,
   33.0255,       279,
   33.0458,       283,
    33.066,       297,
   33.0862,       325,
   33.1064,       312,
   33.1266,       322,
   33.1469,       318,
   33.1671,       324,
   33.1873,       325,
   33.2075,       307,
   33.2277,       275,
    33.248,       255,
   33.2682,       258,
   33.2884,       283,
   33.3086,       260,
   33.3288,       280,
    33.349,       271,
   33.3693,       276,
   33.3895,       275,
   33.4097,       289,
   33.4299,       291,
   33.4501,       277,
   33.4704,       331,
   33.4906,       274,
   33.5108,       280,
    33.531,       278,
   33.5512,       287,
   33.5715,       275,
   33.5917,       283,
   33.6119,       285,
   33.6321,       275,
   33.6523,       282,
   33.6725,       288,
   33.6928,       286,
    33.713,       269,
   33.7332,       296,
   33.7534,       315,
   33.7736,       305,
   33.7939,       304,
   33.8141,       297,
   33.8343,       275,
   33.8545,       276,
   33.8747,       293,
    33.895,       276,
   33.9152,       276,
   33.9354,       311,
   33.9556,       266,
   33.9758,       266,
    33.996,       308,
   34.0163,       299,
   34.0365,       302,
   34.0567,       260,
   34.0769,       291,
   34.0971,       314,
   34.1174,       338,
   34.1376,       306,
   34.1578,       309,
    34.178,       291,
   34.1982,       289,
   34.2185,       309,
   34.2387,       323,
   34.2589,       327,
   34.2791,       293,
   34.2993,       275,
   34.3195,       333,
   34.3398,       320,
     34.36,       332,
   34.3802,       308,
   34.4004,       308,
   34.4206,       305,
   34.4409,       279,
   34.4611,       310,
   34.4813,       262,
   34.5015,       307,
   34.5217,       299,
    34.542,       278,
   34.5622,       331,
   34.5824,       320,
   34.6026,       351,
   34.6228,       382,
    34.643,       398,
   34.6633,       401,
   34.6835,       363,
   34.7037,       397,
   34.7239,       382,
   34.7441,       394,
   34.7644,       335,
   34.7846,       357,
   34.8048,       381,
    34.825,       398,
   34.8452,       355,
   34.8655,       343,
   34.8857,       388,
   34.9059,       383,
   34.9261,       402,
   34.9463,       427,
   34.9665,       463,
   34.9868,       482,
    35.007,       518,
   35.0272,       559,
   35.0474,       593,
   35.0676,       586,
   35.0879,       629,
   35.1081,       651,
   35.1283,       677,
   35.1485,       664,
   35.1687,       691,
    35.189,       680,
   35.2092,       664,
   35.2294,       654,
   35.2496,       591,
   35.2698,       585,
     35.29,       572,
   35.3103,       507,
   35.3305,       536,
   35.3507,       519,
   35.3709,       450,
   35.3911,       456,
   35.4114,       448,
   35.4316,       460,
   35.4518,       474,
    35.472,       447,
   35.4922,       429,
   35.5125,       443,
   35.5327,       421,
   35.5529,       480,
   35.5731,       445,
   35.5933,       460,
   35.6135,       427,
   35.6338,       399,
    35.654,       474,
   35.6742,       415,
   35.6944,       408,
   35.7146,       428,
   35.7349,       464,
   35.7551,       435,
   35.7753,       431,
   35.7955,       465,
   35.8157,       433,
    35.836,       460,
   35.8562,       464,
   35.8764,       450,
   35.8966,       446,
   35.9168,       457,
    35.937,       463,
   35.9573,       429,
   35.9775,       429,
   35.9977,       434,
   36.0179,       402,
   36.0381,       393,
   36.0584,       403,
   36.0786,       421,
   36.0988,       404,
    36.119,       374,
   36.1392,       391,
   36.1595,       403,
   36.1797,       382,
   36.1999,       350,
   36.2201,       355,
   36.2403,       349,
   36.2605,       363,
   36.2808,       327,
    36.301,       331,
   36.3212,       380,
   36.3414,       355,
   36.3616,       348,
   36.3819,       329,
   36.4021,       341,
   36.4223,       324,
   36.4425,       313,
   36.4627,       349,
    36.483,       375,
   36.5032,       444,
   36.5234,       392,
   36.5436,       551,
   36.5638,       571,
    36.584,       589,
   36.6043,       549,
   36.6245,       539,
   36.6447,       542,
   36.6649,       472,
   36.6851,       497,
   36.7054,       399,
   36.7256,       371,
   36.7458,       373,
    36.766,       299,
   36.7862,       320,
   36.8065,       349,
   36.8267,       332,
   36.8469,       331,
   36.8671,       319,
   36.8873,       321,
   36.9075,       338,
   36.9278,       318,
    36.948,       319,
   36.9682,       329,
   36.9884,       326,
   37.0086,       384,
   37.0289,       323,
   37.0491,       386,
   37.0693,       383,
   37.0895,       432,
   37.1097,       438,
     37.13,       506,
   37.1502,       553,
   37.1704,       620,
   37.1906,       792,
   37.2108,       939,
    37.231,      1132,
   37.2513,      1538,
   37.2715,      2052,
   37.2917,      2383,
   37.3119,      2666,
   37.3321,      2964,
   37.3524,      2748,
   37.3726,      2482,
   37.3928,      2169,
    37.413,      1859,
   37.4332,      1552,
   37.4535,      1191,
   37.4737,       856,
   37.4939,       728,
   37.5141,       626,
   37.5343,       525,
   37.5545,       439,
   37.5748,       450,
    37.595,       424,
   37.6152,       399,
   37.6354,       362,
   37.6556,       321,
   37.6759,       363,
   37.6961,       321,
   37.7163,       328,
   37.7365,       294,
   37.7567,       305,
    37.777,       310,
   37.7972,       306,
   37.8174,       332,
   37.8376,       280,
   37.8578,       312,
    37.878,       279,
   37.8983,       325,
   37.9185,       270,
   37.9387,       304,
   37.9589,       292,
   37.9791,       331,
   37.9994,       311,
   38.0196,       299,
   38.0398,       275,
     38.06,       284,
   38.0802,       307,
   38.1005,       279,
   38.1207,       288,
   38.1409,       300,
   38.1611,       267,
   38.1813,       268,
   38.2015,       276,
   38.2218,       303,
    38.242,       316,
   38.2622,       308,
   38.2824,       318,
   38.3026,       336,
   38.3229,       339,
   38.3431,       383,
   38.3633,       353,
   38.3835,       408,
   38.4037,       425,
    38.424,       500,
   38.4442,       507,
   38.4644,       621,
   38.4846,       695,
   38.5048,       797,
    38.525,       795,
   38.5453,       828,
   38.5655,       828,
   38.5857,       758,
   38.6059,       699,
   38.6261,       626,
   38.6464,       582,
   38.6666,       564,
   38.6868,       518,
    38.707,       514,
   38.7272,       475,
   38.7475,       528,
   38.7677,       554,
   38.7879,       635,
   38.8081,       735,
   38.8283,       816,
   38.8485,      1052,
   38.8688,      1334,
    38.889,      1828,
   38.9092,      2199,
   38.9294,      2689,
   38.9496,      3153,
   38.9699,      3312,
   38.9901,      3170,
   39.0103,      2780,
   39.0305,      2428,
   39.0507,      2098,
    39.071,      1721,
   39.0912,      1382,
   39.1114,      1065,
   39.1316,       751,
   39.1518,       633,
    39.172,       538,
   39.1923,       463,
   39.2125,       498,
   39.2327,       445,
   39.2529,       392,
   39.2731,       417,
   39.2934,       403,
   39.3136,       404,
   39.3338,       357,
    39.354,       341,
   39.3742,       335,
   39.3945,       312,
   39.4147,       295,
   39.4349,       287,
   39.4551,       294,
   39.4753,       294,
   39.4955,       299,
   39.5158,       301,
    39.536,       254,
   39.5562,       269,
   39.5764,       278,
   39.5966,       283,
   39.6169,       273,
   39.6371,       255,
   39.6573,       226,
   39.6775,       295,
   39.6977,       282,
    39.718,       252,
   39.7382,       228,
   39.7584,       276,
   39.7786,       249,
   39.7988,       252,
    39.819,       273,
   39.8393,       263,
   39.8595,       239,
   39.8797,       255,
   39.8999,       244,
   39.9201,       260,
   39.9404,       258,
   39.9606,       259,
   39.9808,       274,
    40.001,       226,
   40.0212,       264,
   40.0415,       284,
   40.0617,       235,
   40.0819,       264,
   40.1021,       255,
   40.1223,       262,
   40.1425,       268,
   40.1628,       307,
    40.183,       317,
   40.2032,       309,
   40.2234,       292,
   40.2436,       304,
   40.2639,       286,
   40.2841,       269,
   40.3043,       273,
   40.3245,       277,
   40.3447,       261,
    40.365,       269,
   40.3852,       250,
   40.4054,       230,
   40.4256,       247,
   40.4458,       277,
    40.466,       210,
   40.4863,       263,
   40.5065,       256,
   40.5267,       224,
   40.5469,       257,
   40.5671,       238,
   40.5874,       254,
   40.6076,       257,
   40.6278,       268,
    40.648,       254,
   40.6682,       233,
   40.6885,       253,
   40.7087,       258,
   40.7289,       236,
   40.7491,       274,
   40.7693,       281,
   40.7895,       290,
   40.8098,       268,
     40.83,       255,
   40.8502,       256,
   40.8704,       244,
   40.8906,       210,
   40.9109,       263,
   40.9311,       246,
   40.9513,       265,
   40.9715,       256,
   40.9917,       248,
    41.012,       259,
   41.0322,       267,
   41.0524,       232,
   41.0726,       254,
   41.0928,       241,
   41.1131,       245,
   41.1333,       259,
   41.1535,       230,
   41.1737,       261,
   41.1939,       247,
   41.2141,       233,
   41.2344,       242,
   41.2546,       237,
   41.2748,       250,
    41.295,       258,
   41.3152,       259,
   41.3355,       263,
   41.3557,       263,
   41.3759,       232,
   41.3961,       246,
   41.4163,       237,
   41.4366,       254,
   41.4568,       259,
    41.477,       229,
   41.4972,       262,
   41.5174,       244,
   41.5376,       222,
   41.5579,       275,
   41.5781,       266,
   41.5983,       261,
   41.6185,       242,
   41.6387,       261,
    41.659,       267,
   41.6792,       234,
   41.6994,       262,
   41.7196,       270,
   41.7398,       265,
   41.7601,       223,
   41.7803,       254,
   41.8005,       264,
   41.8207,       273,
   41.8409,       251,
   41.8611,       238,
   41.8814,       243,
   41.9016,       265,
   41.9218,       257,
    41.942,       278,
   41.9622,       265,
   41.9825,       269,
   42.0027,       298,
   42.0229,       285,
   42.0431,       292,
   42.0633,       320,
   42.0836,       294,
   42.1038,       320,
    42.124,       331,
   42.1442,       340,
   42.1644,       349,
   42.1846,       357,
   42.2049,       355,
   42.2251,       344,
   42.2453,       375,
   42.2655,       471,
   42.2857,       485,
    42.306,       482,
   42.3262,       587,
   42.3464,       671,
   42.3666,       766,
   42.3868,       960,
   42.4071,      1232,
   42.4273,      1549,
   42.4475,      1760,
   42.4677,      2062,
   42.4879,      2148,
   42.5081,      2070,
   42.5284,      2054,
   42.5486,      2157,
   42.5688,      2165,
    42.589,      2000,
   42.6092,      1731,
   42.6295,      1469,
   42.6497,      1207,
   42.6699,      1049,
   42.6901,       938,
   42.7103,       763,
   42.7306,       689,
   42.7508,       496,
    42.771,       455,
   42.7912,       419,
   42.8114,       396,
   42.8316,       372,
   42.8519,       365,
   42.8721,       389,
   42.8923,       347,
   42.9125,       342,
   42.9327,       367,
    42.953,       357,
   42.9732,       353,
   42.9934,       313,
   43.0136,       311,
   43.0338,       332,
   43.0541,       318,
   43.0743,       321,
   43.0945,       302,
   43.1147,       327,
   43.1349,       300,
   43.1551,       304,
   43.1754,       300,
   43.1956,       295,
   43.2158,       330,
    43.236,       290,
   43.2562,       285,
   43.2765,       285,
   43.2967,       275,
   43.3169,       290,
   43.3371,       318,
   43.3573,       305,
   43.3776,       311,
   43.3978,       282,
    43.418,       308,
   43.4382,       305,
   43.4584,       323,
   43.4786,       349,
   43.4989,       338,
   43.5191,       314,
   43.5393,       314,
   43.5595,       323,
   43.5797,       292,
      43.6,       343,
   43.6202,       350,
   43.6404,       359,
   43.6606,       312,
   43.6808,       441,
   43.7011,       375,
   43.7213,       459,
   43.7415,       516,
   43.7617,       589,
   43.7819,       765,
   43.8021,       835,
   43.8224,       933,
   43.8426,      1096,
   43.8628,      1123,
    43.883,      1149,
   43.9032,      1005,
   43.9235,       946,
   43.9437,       842,
   43.9639,       767,
   43.9841,       664,
   44.0043,       618,
   44.0246,       516,
   44.0448,       440,
    44.065,       391,
   44.0852,       374,
   44.1054,       363,
   44.1256,       393,
   44.1459,       346,
   44.1661,       388,
   44.1863,       357,
   44.2065,       370,
   44.2267,       307,
    44.247,       328,
   44.2672,       369,
   44.2874,       344,
   44.3076,       383,
   44.3278,       412,
   44.3481,       405,
   44.3683,       427,
   44.3885,       464,
   44.4087,       509,
   44.4289,       594,
   44.4491,       759,
   44.4694,       928,
   44.4896,      1221,
   44.5098,      1556,
     44.53,      1937,
   44.5502,      2269,
   44.5705,      2482,
   44.5907,      2474,
   44.6109,      2290,
   44.6311,      1964,
   44.6513,      1755,
   44.6716,      1620,
   44.6918,      1327,
    44.712,      1173,
   44.7322,       919,
   44.7524,       685,
   44.7726,       619,
   44.7929,       525,
   44.8131,       494,
   44.8333,       463,
   44.8535,       486,
   44.8737,       443,
    44.894,       449,
   44.9142,       435,
   44.9344,       448,
   44.9546,       417,
   44.9748,       430,
   44.9951,       440,
   45.0153,       462,
   45.0355,       471,
   45.0557,       550,
   45.0759,       638,
   45.0961,       683,
   45.1164,       824,
   45.1366,      1073,
   45.1568,      1310,
    45.177,      1601,
   45.1972,      1810,
   45.2175,      1914,
   45.2377,      1884,
   45.2579,      1726,
   45.2781,      1622,
   45.2983,      1456,
   45.3186,      1408,
   45.3388,      1353,
    45.359,      1409,
   45.3792,      1374,
   45.3994,      1343,
   45.4196,      1466,
   45.4399,      1487,
   45.4601,      1355,
   45.4803,      1225,
   45.5005,      1186,
   45.5207,       982,
    45.541,       887,
   45.5612,       870,
   45.5814,       672,
   45.6016,       563,
   45.6218,       490,
   45.6421,       443,
   45.6623,       372,
   45.6825,       349,
   45.7027,       295,
   45.7229,       342,
   45.7431,       323,
   45.7634,       271,
   45.7836,       295,
   45.8038,       289,
    45.824,       254,
   45.8442,       264,
   45.8645,       294,
   45.8847,       249,
   45.9049,       245,
   45.9251,       224,
   45.9453,       250,
   45.9656,       262,
   45.9858,       263,
    46.006,       239,
   46.0262,       237,
   46.0464,       243,
   46.0666,       230,
   46.0869,       217,
   46.1071,       218,
   46.1273,       234,
   46.1475,       252,
   46.1677,       236,
    46.188,       247,
   46.2082,       222,
   46.2284,       236,
   46.2486,       220,
   46.2688,       231,
   46.2891,       198,
   46.3093,       234,
   46.3295,       221,
   46.3497,       234,
   46.3699,       204,
   46.3901,       232,
   46.4104,       233,
   46.4306,       243,
   46.4508,       234,
    46.471,       213,
   46.4912,       230,
   46.5115,       220,
   46.5317,       269,
   46.5519,       216,
   46.5721,       243,
   46.5923,       231,
   46.6126,       232,
   46.6328,       258,
    46.653,       225,
   46.6732,       242,
   46.6934,       213,
   46.7136,       213,
   46.7339,       222,
   46.7541,       216,
   46.7743,       222,
   46.7945,       200,
   46.8147,       256,
    46.835,       226,
   46.8552,       217,
   46.8754,       248,
   46.8956,       220,
   46.9158,       248,
   46.9361,       248,
   46.9563,       251,
   46.9765,       229,
   46.9967,       272,
   47.0169,       272,
   47.0371,       242,
   47.0574,       283,
   47.0776,       277,
   47.0978,       257,
    47.118,       282,
   47.1382,       249,
   47.1585,       279,
   47.1787,       242,
   47.1989,       257,
   47.2191,       273,
   47.2393,       271,
   47.2596,       285,
   47.2798,       245,
      47.3,       250,
   47.3202,       268,
   47.3404,       263,
   47.3606,       257,
   47.3809,       280,
   47.4011,       244,
   47.4213,       243,
   47.4415,       270,
   47.4617,       244,
    47.482,       234,
   47.5022,       260,
   47.5224,       267,
   47.5426,       247,
   47.5628,       239,
   47.5831,       279,
   47.6033,       254,
   47.6235,       249,
   47.6437,       274,
   47.6639,       254,
   47.6841,       258,
   47.7044,       244,
   47.7246,       237,
   47.7448,       238,
    47.765,       247,
   47.7852,       234,
   47.8055,       253,
   47.8257,       274,
   47.8459,       299,
   47.8661,       283,
   47.8863,       289,
   47.9066,       257,
   47.9268,       278,
    47.947,       259,
   47.9672,       250,
   47.9874,       254,
   48.0076,       266,
   48.0279,       280,
   48.0481,       288,
   48.0683,       245,
   48.0885,       251,
   48.1087,       296,
    48.129,       252,
   48.1492,       279,
   48.1694,       249,
   48.1896,       286,
   48.2098,       289,
   48.2301,       296,
   48.2503,       304,
   48.2705,       309,
   48.2907,       339,
   48.3109,       330,
   48.3311,       337,
   48.3514,       374,
   48.3716,       428,
   48.3918,       399,
    48.412,       518,
   48.4322,       577,
   48.4525,       769,
   48.4727,       901,
   48.4929,      1020,
   48.5131,      1016,
   48.5333,       961,
   48.5536,       892,
   48.5738,       789,
    48.594,       777,
   48.6142,       776,
   48.6344,       652,
   48.6546,       585,
   48.6749,       497,
   48.6951,       411,
   48.7153,       380,
   48.7355,       337,
   48.7557,       337,
    48.776,       293,
   48.7962,       278,
   48.8164,       258,
   48.8366,       239,
   48.8568,       233,
   48.8771,       245,
   48.8973,       224,
   48.9175,       254,
   48.9377,       252,
   48.9579,       252,
   48.9781,       256,
   48.9984,       251,
   49.0186,       223,
   49.0388,       235,
    49.059,       223,
   49.0792,       235,
   49.0995,       238,
   49.1197,       208,
   49.1399,       215,
   49.1601,       219,
   49.1803,       210,
   49.2006,       230,
   49.2208,       224,
    49.241,       215,
   49.2612,       190,
   49.2814,       181,
   49.3016,       226,
   49.3219,       214,
   49.3421,       210,
   49.3623,       194,
   49.3825,       197,
   49.4027,       222,
    49.423,       176,
   49.4432,       183,
   49.4634,       202,
   49.4836,       204,
   49.5038,       188,
   49.5241,       208,
   49.5443,       197,
   49.5645,       238,
   49.5847,       195,
   49.6049,       204,
   49.6251,       201,
   49.6454,       194,
   49.6656,       219,
   49.6858,       207,
    49.706,       201,
   49.7262,       208,
   49.7465,       223,
   49.7667,       186,
   49.7869,       179,
   49.8071,       220,
   49.8273,       206,
   49.8476,       199,
   49.8678,       205,
    49.888,       209,
   49.9082,       227,
   49.9284,       209,
   49.9486,       224,
   49.9689,       231,
   49.9891,       219,
   50.0093,       239,
   50.0295,       236,
   50.0497,       214,
     50.07,       235,
   50.0902,       221,
   50.1104,       212,
   50.1306,       229,
   50.1508,       210,
   50.1711,       255,
   50.1913,       217,
   50.2115,       233,
   50.2317,       234,
   50.2519,       251,
   50.2721,       312,
   50.2924,       304,
   50.3126,       297,
   50.3328,       313,
    50.353,       281,
   50.3732,       329,
   50.3935,       319,
   50.4137,       408,
   50.4339,       485,
   50.4541,       542,
   50.4743,       680,
   50.4946,       935,
   50.5148,      1241,
    50.535,      1379,
   50.5552,      1586,
   50.5754,      1454,
   50.5956,      1329,
   50.6159,      1096,
   50.6361,      1088,
   50.6563,       977,
   50.6765,       917,
   50.6967,       830,
    50.717,       628,
   50.7372,       494,
   50.7574,       426,
   50.7776,       360,
   50.7978,       293,
   50.8181,       302,
   50.8383,       304,
   50.8585,       295,
   50.8787,       302,
   50.8989,       237,
   50.9191,       267,
   50.9394,       264,
   50.9596,       273,
   50.9798,       245,
        51,       274,
   51.0202,       218,
   51.0405,       239,
   51.0607,       267,
   51.0809,       244,
   51.1011,       246,
   51.1213,       249,
   51.1416,       215,
   51.1618,       246,
    51.182,       235,
   51.2022,       233,
   51.2224,       257,
   51.2426,       252,
   51.2629,       269,
   51.2831,       289,
   51.3033,       262,
   51.3235,       290,
   51.3437,       254,
    51.364,       236,
   51.3842,       263,
   51.4044,       250,
   51.4246,       277,
   51.4448,       269,
   51.4651,       241,
   51.4853,       275,
   51.5055,       230,
   51.5257,       253,
   51.5459,       268,
   51.5661,       239,
   51.5864,       258,
   51.6066,       252,
   51.6268,       251,
    51.647,       261,
   51.6672,       256,
   51.6875,       239,
   51.7077,       224,
   51.7279,       254,
   51.7481,       257,
   51.7683,       247,
   51.7886,       230,
   51.8088,       232,
    51.829,       233,
   51.8492,       233,
   51.8694,       257,
   51.8897,       210,
   51.9099,       221,
   51.9301,       260,
   51.9503,       219,
   51.9705,       200,
   51.9907,       222,
    52.011,       197,
   52.0312,       221,
   52.0514,       231,
   52.0716,       223,
   52.0918,       232,
   52.1121,       223,
   52.1323,       236,
   52.1525,       198,
   52.1727,       209,
   52.1929,       222,
   52.2132,       220,
   52.2334,       206,
   52.2536,       243,
   52.2738,       207,
    52.294,       201,
   52.3142,       250,
   52.3345,       224,
   52.3547,       238,
   52.3749,       230,
   52.3951,       217,
   52.4153,       231,
   52.4356,       244,
   52.4558,       221,
    52.476,       221,
   52.4962,       235,
   52.5164,       205,
   52.5367,       248,
   52.5569,       208,
   52.5771,       248,
   52.5973,       251,
   52.6175,       233,
   52.6377,       235,
    52.658,       246,
   52.6782,       224,
   52.6984,       203,
   52.7186,       204,
   52.7388,       246,
   52.7591,       233,
   52.7793,       245,
   52.7995,       228,
   52.8197,       260,
   52.8399,       220,
   52.8602,       222,
   52.8804,       249,
   52.9006,       244,
   52.9208,       251,
    52.941,       212,
   52.9612,       243,
   52.9815,       263,
   53.0017,       235,
   53.0219,       234,
   53.0421,       228,
   53.0623,       239,
   53.0826,       233,
   53.1028,       266,
    53.123,       246,
   53.1432,       237,
   53.1634,       274,
   53.1837,       231,
   53.2039,       292,
   53.2241,       256,
   53.2443,       273,
   53.2645,       287,
   53.2847,       308,
    53.305,       296,
   53.3252,       306,
   53.3454,       311,
   53.3656,       346,
   53.3858,       334,
   53.4061,       399,
   53.4263,       399,
   53.4465,       451,
   53.4667,       484,
   53.4869,       575,
   53.5072,       688,
   53.5274,       728,
   53.5476,       829,
   53.5678,       940,
    53.588,      1062,
   53.6082,      1040,
   53.6285,      1088,
   53.6487,      1074,
   53.6689,      1030,
   53.6891,       992,
   53.7093,      1000,
   53.7296,       944,
   53.7498,       901,
     53.77,       839,
   53.7902,       796,
   53.8104,       751,
   53.8307,       706,
   53.8509,       732,
   53.8711,       662,
   53.8913,       719,
   53.9115,       831,
   53.9317,       966,
    53.952,      1260,
   53.9722,      1520,
   53.9924,      2112,
   54.0126,      2776,
   54.0328,      3539,
   54.0531,      4032,
   54.0733,      4091,
   54.0935,      3704,
   54.1137,      3142,
   54.1339,      2840,
   54.1542,      2671,
   54.1744,      2548,
   54.1946,      2462,
   54.2148,      2130,
    54.235,      1675,
   54.2552,      1301,
   54.2755,       857,
   54.2957,       729,
   54.3159,       640,
   54.3361,       570,
   54.3563,       483,
   54.3766,       452,
   54.3968,       396,
    54.417,       369,
   54.4372,       350,
   54.4574,       348,
   54.4777,       315,
   54.4979,       301,
   54.5181,       301,
   54.5383,       302,
   54.5585,       267,
   54.5787,       275,
    54.599,       273,
   54.6192,       266,
   54.6394,       256,
   54.6596,       233,
   54.6798,       250,
   54.7001,       276,
   54.7203,       265,
   54.7405,       257,
   54.7607,       268,
   54.7809,       249,
   54.8012,       234,
   54.8214,       242,
   54.8416,       247,
   54.8618,       251,
    54.882,       248,
   54.9022,       251,
   54.9225,       226,
   54.9427,       248,
   54.9629,       224,
   54.9831,       207,
   55.0033,       218,
   55.0236,       237,
   55.0438,       230,
    55.064,       221,
   55.0842,       213,
   55.1044,       186,
   55.1247,       212,
   55.1449,       206,
   55.1651,       225,
   55.1853,       186,
   55.2055,       240,
   55.2257,       195,
    55.246,       212,
   55.2662,       222,
   55.2864,       188,
   55.3066,       213,
   55.3268,       211,
   55.3471,       226,
   55.3673,       221,
   55.3875,       233,
   55.4077,       194,
   55.4279,       191,
   55.4482,       201,
   55.4684,       214,
   55.4886,       178,
   55.5088,       190,
    55.529,       218,
   55.5492,       176,
   55.5695,       225,
   55.5897,       218,
   55.6099,       228,
   55.6301,       228,
   55.6503,       230,
   55.6706,       256,
   55.6908,       234,
    55.711,       230,
   55.7312,       232,
   55.7514,       252,
   55.7717,       200,
   55.7919,       206,
   55.8121,       232,
   55.8323,       199,
   55.8525,       227,
   55.8727,       244,
    55.893,       232,
   55.9132,       192,
   55.9334,       202,
   55.9536,       225,
   55.9738,       214,
   55.9941,       221,
   56.0143,       230,
   56.0345,       231,
   56.0547,       204,
   56.0749,       220,
   56.0952,       226,
   56.1154,       221,
   56.1356,       228,
   56.1558,       236,
    56.176,       229,
   56.1962,       245,
   56.2165,       263,
   56.2367,       251,
   56.2569,       242,
   56.2771,       245,
   56.2973,       276,
   56.3176,       279,
   56.3378,       236,
    56.358,       251,
   56.3782,       240,
   56.3984,       258,
   56.4187,       226,
   56.4389,       258,
   56.4591,       270,
   56.4793,       267,
   56.4995,       292,
   56.5197,       268,
     56.54,       309,
   56.5602,       295,
   56.5804,       281,
   56.6006,       314,
   56.6208,       306,
   56.6411,       285,
   56.6613,       305,
   56.6815,       369,
   56.7017,       325,
   56.7219,       354,
   56.7422,       387,
   56.7624,       394,
   56.7826,       402,
   56.8028,       430,
    56.823,       488,
   56.8432,       520,
   56.8635,       574,
   56.8837,       650,
   56.9039,       801,
   56.9241,       965,
   56.9443,      1136,
   56.9646,      1385,
   56.9848,      1555,
    57.005,      1867,
   57.0252,      1907,
   57.0454,      1819,
   57.0657,      1866,
   57.0859,      1895,
   57.1061,      1898,
   57.1263,      1933,
   57.1465,      2013,
   57.1667,      1985,
    57.187,      1708,
   57.2072,      1503,
   57.2274,      1290,
   57.2476,      1084,
   57.2678,      1059,
   57.2881,       917,
   57.3083,       892,
   57.3285,       769,
   57.3487,       631,
   57.3689,       487,
   57.3892,       518,
   57.4094,       424,
   57.4296,       405,
   57.4498,       394,
     57.47,       381,
   57.4902,       369,
   57.5105,       314,
   57.5307,       343,
   57.5509,       272,
   57.5711,       305,
   57.5913,       288,
   57.6116,       280,
   57.6318,       242,
    57.652,       276,
   57.6722,       281,
   57.6924,       281,
   57.7127,       240,
   57.7329,       259,
   57.7531,       278,
   57.7733,       240,
   57.7935,       256,
   57.8137,       243,
    57.834,       261,
   57.8542,       256,
   57.8744,       229,
   57.8946,       251,
   57.9148,       237,
   57.9351,       241,
   57.9553,       242,
   57.9755,       275,
   57.9957,       279,
   58.0159,       258,
   58.0362,       255,
   58.0564,       290,
   58.0766,       274,
   58.0968,       275,
    58.117,       265,
   58.1372,       254,
   58.1575,       244,
   58.1777,       244,
   58.1979,       255,
   58.2181,       241,
   58.2383,       274,
   58.2586,       266,
   58.2788,       256,
    58.299,       260,
   58.3192,       285,
   58.3394,       276,
   58.3597,       267,
   58.3799,       219,
   58.4001,       266,
   58.4203,       274,
   58.4405,       252,
   58.4607,       274,
    58.481,       257,
   58.5012,       241,
   58.5214,       240,
   58.5416,       257,
   58.5618,       257,
   58.5821,       242,
   58.6023,       262,
   58.6225,       276,
   58.6427,       250,
   58.6629,       256,
   58.6832,       245,
   58.7034,       258,
   58.7236,       271,
   58.7438,       280,
    58.764,       293,
   58.7842,       278,
   58.8045,       309,
   58.8247,       363,
   58.8449,       346,
   58.8651,       360,
   58.8853,       362,
   58.9056,       363,
   58.9258,       345,
    58.946,       320,
   58.9662,       310,
   58.9864,       307,
   59.0067,       373,
   59.0269,       390,
   59.0471,       366,
   59.0673,       383,
   59.0875,       405,
   59.1077,       352,
    59.128,       440,
   59.1482,       467,
   59.1684,       579,
   59.1886,       630,
   59.2088,       815,
   59.2291,       927,
   59.2493,      1188,
   59.2695,      1429,
   59.2897,      1532,
   59.3099,      1550,
   59.3302,      1511,
   59.3504,      1351,
   59.3706,      1279,
   59.3908,      1155,
    59.411,      1044,
   59.4312,       979,
   59.4515,      1013,
   59.4717,       825,
   59.4919,       749,
   59.5121,       567,
   59.5323,       461,
   59.5526,       422,
   59.5728,       385,
    59.593,       322,
   59.6132,       304,
   59.6334,       319,
   59.6537,       309,
   59.6739,       320,
   59.6941,       273,
   59.7143,       262,
   59.7345,       252,
   59.7547,       233,
    59.775,       258,
   59.7952,       254,
   59.8154,       219,
   59.8356,       242,
   59.8558,       203,
   59.8761,       221,
   59.8963,       232,
   59.9165,       212,
   59.9367,       210,
   59.9569,       203,
   59.9772,       195,
   59.9974,       213,
   60.0176,       198,
   60.0378,       196,
    60.058,       198,
   60.0782,       209,
   60.0985,       211,
   60.1187,       187,
   60.1389,       187,
   60.1591,       187,
   60.1793,       212,
   60.1996,       198,
   60.2198,       194,
     60.24,       180,
   60.2602,       162,
   60.2804,       203,
   60.3007,       172,
   60.3209,       189,
   60.3411,       189,
   60.3613,       193,
   60.3815,       201,
   60.4017,       191,
    60.422,       173,
   60.4422,       193,
   60.4624,       181,
   60.4826,       185,
   60.5028,       169,
   60.5231,       167,
   60.5433,       196,
   60.5635,       173,
   60.5837,       161,
   60.6039,       191,
   60.6242,       198,
   60.6444,       190,
   60.6646,       159,
   60.6848,       195,
    60.705,       170,
   60.7252,       187,
   60.7455,       177,
   60.7657,       205,
   60.7859,       203,
   60.8061,       178,
   60.8263,       186,
   60.8466,       191,
   60.8668,       189,
    60.887,       183,
   60.9072,       192,
   60.9274,       168,
   60.9477,       162,
   60.9679,       176,
   60.9881,       211,
   61.0083,       188,
   61.0285,       199,
   61.0487,       196,
    61.069,       193,
   61.0892,       215,
   61.1094,       169,
   61.1296,       187,
   61.1498,       208,
   61.1701,       184,
   61.1903,       238,
   61.2105,       212,
   61.2307,       229,
   61.2509,       242,
   61.2712,       260,
   61.2914,       242,
   61.3116,       319,
   61.3318,       302,
    61.352,       363,
   61.3722,       332,
   61.3925,       338,
   61.4127,       327,
   61.4329,       323,
   61.4531,       282,
   61.4733,       304,
   61.4936,       271,
   61.5138,       294,
    61.534,       273,
   61.5542,       274,
   61.5744,       267,
   61.5947,       247,
   61.6149,       266,
   61.6351,       239,
   61.6553,       251,
   61.6755,       264,
   61.6957,       286,
    61.716,       299,
   61.7362,       331,
   61.7564,       288,
   61.7766,       334,
   61.7968,       379,
   61.8171,       464,
   61.8373,       485,
   61.8575,       581,
   61.8777,       789,
   61.8979,       914,
   61.9182,      1161,
   61.9384,      1386,
   61.9586,      1522,
   61.9788,      1602,
    61.999,      1525,
   62.0192,      1276,
   62.0395,      1144,
   62.0597,      1093,
   62.0799,      1034,
   62.1001,      1014,
   62.1203,       990,
   62.1406,       879,
   62.1608,       751,
    62.181,       633,
   62.2012,       534,
   62.2214,       425,
   62.2417,       420,
   62.2619,       359,
   62.2821,       343,
   62.3023,       332,
   62.3225,       327,
   62.3427,       310,
    62.363,       329,
   62.3832,       331,
   62.4034,       323,
   62.4236,       376,
   62.4438,       368,
   62.4641,       399,
   62.4843,       461,
   62.5045,       545,
   62.5247,       612,
   62.5449,       764,
   62.5652,       772,
   62.5854,       873,
   62.6056,       886,
   62.6258,       950,
    62.646,       994,
   62.6663,       940,
   62.6865,       893,
   62.7067,       817,
   62.7269,       799,
   62.7471,       719,
   62.7673,       629,
   62.7876,       643,
   62.8078,       576,
    62.828,       523,
   62.8482,       516,
   62.8684,       384,
   62.8887,       375,
   62.9089,       322,
   62.9291,       253,
   62.9493,       249,
   62.9695,       289,
   62.9898,       225,
     63.01,       222,
   63.0302,       188,
   63.0504,       198,
   63.0706,       186,
   63.0908,       225,
   63.1111,       198,
   63.1313,       181,
   63.1515,       205,
   63.1717,       187,
   63.1919,       156,
   63.2122,       189,
   63.2324,       200,
   63.2526,       170,
   63.2728,       148,
    63.293,       172,
   63.3133,       180,
   63.3335,       154,
   63.3537,       173,
   63.3739,       208,
   63.3941,       179,
   63.4143,       186,
   63.4346,       179,
   63.4548,       193,
    63.475,       179,
   63.4952,       167,
   63.5154,       190,
   63.5357,       172,
   63.5559,       179,
   63.5761,       211,
   63.5963,       183,
   63.6165,       175,
   63.6368,       192,
    63.657,       165,
   63.6772,       194,
   63.6974,       211,
   63.7176,       248,
   63.7378,       242,
   63.7581,       304,
   63.7783,       283,
   63.7985,       305,
   63.8187,       277,
   63.8389,       272,
   63.8592,       255,
   63.8794,       245,
   63.8996,       243,
   63.9198,       264,
     63.94,       230,
   63.9603,       238,
   63.9805,       223,
   64.0007,       189,
   64.0209,       208,
   64.0411,       182,
   64.0613,       173,
   64.0816,       187,
   64.1018,       159,
    64.122,       184,
   64.1422,       170,
   64.1624,       165,
   64.1827,       141,
   64.2029,       170,
   64.2231,       176,
   64.2433,       151,
   64.2635,       142,
   64.2838,       147,
    64.304,       178,
   64.3242,       154,
   64.3444,       169,
   64.3646,       171,
   64.3848,       146,
   64.4051,       150,
   64.4253,       151,
   64.4455,       162,
   64.4657,       165,
   64.4859,       151,
   64.5062,       141,
   64.5264,       143,
   64.5466,       144,
   64.5668,       153,
    64.587,       141,
   64.6073,       120,
   64.6275,       133,
   64.6477,       173,
   64.6679,       146,
   64.6881,       150,
   64.7083,       136,
   64.7286,       144,
   64.7488,       143,
    64.769,       145,
   64.7892,       168,
   64.8094,       144,
   64.8297,       147,
   64.8499,       160,
   64.8701,       152,
   64.8903,       157,
   64.9105,       145,
   64.9308,       142,
    64.951,       120,
   64.9712,       126,
   64.9914,       151,
   65.0116,       142,
   65.0318,       169,
   65.0521,       144,
   65.0723,       164,
   65.0925,       141,
   65.1127,       139,
   65.1329,       143,
   65.1532,       134,
   65.1734,       135,
   65.1936,       142,
   65.2138,       137,
    65.234,       161,
   65.2543,       152,
   65.2745,       149,
   65.2947,       151,
   65.3149,       166,
   65.3351,       146,
   65.3553,       160,
   65.3756,       164,
   65.3958,       159,
    65.416,       146,
   65.4362,       140,
   65.4564,       142,
   65.4767,       168,
   65.4969,       150,
   65.5171,       159,
   65.5373,       162,
   65.5575,       157,
   65.5778,       176,
    65.598,       143,
   65.6182,       162,
   65.6384,       169,
   65.6586,       148,
   65.6788,       130,
   65.6991,       158,
   65.7193,       149,
   65.7395,       151,
   65.7597,       144,
   65.7799,       152,
   65.8002,       155,
   65.8204,       141,
   65.8406,       139,
   65.8608,       153,
    65.881,       148,
   65.9013,       151,
   65.9215,       140,
   65.9417,       158,
   65.9619,       134,
   65.9821,       178,
   66.0023,       170,
   66.0226,       155,
   66.0428,       151,
    66.063,       146,
   66.0832,       142,
   66.1034,       148,
   66.1237,       145,
   66.1439,       142,
   66.1641,       170,
   66.1843,       169,
   66.2045,       145,
   66.2248,       129,
    66.245,       168,
   66.2652,       158,
   66.2854,       189,
   66.3056,       158,
   66.3258,       165,
   66.3461,       193,
   66.3663,       197,
   66.3865,       244,
   66.4067,       219,
   66.4269,       229,
   66.4472,       285,
   66.4674,       265,
   66.4876,       274,
   66.5078,       241,
    66.528,       260,
   66.5483,       260,
   66.5685,       212,
   66.5887,       237,
   66.6089,       242,
   66.6291,       241,
   66.6493,       241,
   66.6696,       235,
   66.6898,       227,
     66.71,       223,
   66.7302,       251,
   66.7504,       254,
   66.7707,       259,
   66.7909,       268,
   66.8111,       262,
   66.8313,       253,
   66.8515,       310,
   66.8718,       314,
    66.892,       314,
   66.9122,       335,
   66.9324,       354,
   66.9526,       312,
   66.9728,       299,
   66.9931,       307,
   67.0133,       294,
   67.0335,       290,
   67.0537,       276,
   67.0739,       261,
   67.0942,       260,
   67.1144,       267,
   67.1346,       224,
   67.1548,       246,
    67.175,       231,
   67.1953,       235,
   67.2155,       219,
   67.2357,       236,
   67.2559,       272,
   67.2761,       270,
   67.2963,       254,
   67.3166,       262,
   67.3368,       241,
    67.357,       237,
   67.3772,       202,
   67.3974,       201,
   67.4177,       190,
   67.4379,       211,
   67.4581,       217,
   67.4783,       170,
   67.4985,       209,
   67.5188,       185,
    67.539,       152,
   67.5592,       171,
   67.5794,       160,
   67.5996,       186,
   67.6198,       149,
   67.6401,       168,
   67.6603,       132,
   67.6805,       154,
   67.7007,       159,
   67.7209,       147,
   67.7412,       158,
   67.7614,       149,
   67.7816,       131,
   67.8018,       127,
    67.822,       167,
   67.8423,       147,
   67.8625,       156,
   67.8827,       157,
   67.9029,       136,
   67.9231,       139,
   67.9433,       135,
   67.9636,       156,
   67.9838,       148,
    68.004,       131,
   68.0242,       139,
   68.0444,       155,
   68.0647,       146,
   68.0849,       148,
   68.1051,       139,
   68.1253,       142,
   68.1455,       161,
   68.1658,       142,
    68.186,       134,
   68.2062,       158,
   68.2264,       139,
   68.2466,       163,
   68.2668,       165,
   68.2871,       147,
   68.3073,       148,
   68.3275,       158,
   68.3477,       151,
   68.3679,       140,
   68.3882,       129,
   68.4084,       128,
   68.4286,       139,
   68.4488,       143,
    68.469,       157,
   68.4893,       142,
   68.5095,       144,
   68.5297,       147,
   68.5499,       168,
   68.5701,       145,
   68.5903,       156,
   68.6106,       151,
   68.6308,       133,
    68.651,       144,
   68.6712,       138,
   68.6914,       134,
   68.7117,       154,
   68.7319,       164,
   68.7521,       143,
   68.7723,       142,
   68.7925,       147,
   68.8128,       126,
    68.833,       155,
   68.8532,       166,
   68.8734,       156,
   68.8936,       155,
   68.9138,       148,
   68.9341,       143,
   68.9543,       156,
   68.9745,       150,
   68.9947,       160,
   69.0149,       177,
   69.0352,       148,
   69.0554,       167,
   69.0756,       165,
   69.0958,       165,
    69.116,       154,
   69.1363,       154,
   69.1565,       165,
   69.1767,       163,
   69.1969,       166,
   69.2171,       182,
   69.2373,       162,
   69.2576,       168,
   69.2778,       152,
    69.298,       156,
   69.3182,       154,
   69.3384,       155,
   69.3587,       157,
   69.3789,       178,
   69.3991,       166,
   69.4193,       159,
   69.4395,       152,
   69.4598,       137,
     69.48,       134,
   69.5002,       159,
   69.5204,       156,
   69.5406,       138,
   69.5608,       143,
   69.5811,       146,
   69.6013,       158,
   69.6215,       148,
   69.6417,       141,
   69.6619,       142,
   69.6822,       156,
   69.7024,       158,
   69.7226,       141,
   69.7428,       158,
    69.763,       149,
   69.7833,       139,
   69.8035,       160,
   69.8237,       154,
   69.8439,       142,
   69.8641,       179,
   69.8843,       173,
   69.9046,       148,
   69.9248,       174,
    69.945,       164,
   69.9652,       167,
   69.9854,       170,
   70.0057,       152,
