;RAW4.00
[RawHeader]
Date=11/19/2019
EstimatedTotalTime=1743.71
FurtherDQLReading=0
HardwareIndicator=65519
MeasuredTotalTime=1743.71
MeasurementFlag=1
NumberOfMeasuredRanges=1
NumberOfRanges=1
Time=23:07:38

[VarInfo]
Type=USER
Flags=0
Value=Bruker Service

[VarInfo]
Type=SAMPLEID
Flags=0
Value=Commander Sample ID

[VarInfo]
Type=COMMENT
Flags=0
Value=

[VarInfo]
Type=UTF
Flags=0
Value=

[VarInfo]
Type=CREATOR
Flags=0
Value=BrmlToV4Converter

[VarInfo]
Type=CREATOR_VERSION
Flags=0
Value=7.3.0.0

[HardwareConfiguration]
AbsorptionFactor=9999
ActivateAbsorber=0
Alpha1=1.78897
Alpha2=1.79285
AlphaAverage=1.79026
AlphaRatio=0.5
Analyzer=0
Anode=Co
AntiScatteringSlit=9999
BeamOpticsFlags=0
Beta=1.62079
BetaRelativeIntensity=0
DeactivateAbsorber=0
DetectorSlit=9999
DivergenceSlit=1
GoniometerControl=0
GoniometerDiameter=282
GoniometerModel=256
GoniometerStage=7
Monochromator=0
NearSampleSlit=9999
PrimarySollerSlit=9999
SampleChanger=0
SecondSollerSlit=9999
SynchronousAxis=0
ThinFilmAttachment=9999
WaveUnit=A

[RangeHeader]
ActuallyUsedLambda=1.79026
AdditionalDetectorMask=257
DataRecordLength=4
DelayTime=0
DisplayPlaneNumber=0
EstimatedScanTime=1744
ExtraParametersMask=0
GeneratorCurrent=10
GeneratorVoltage=30
Increment=0.0202188
Increment3=0
NumberOfCompletedData=3216
NumberOfCounts=1
NumberOfDetectors=0
NumberOfDrives=2
NumberOfEncoderDrives=0
NumberOfMeasuredData=3216
NumberOfVaryingParameters=0
RangeStartTime=0
RotationSpeed=1
ScanMode=1
ScanType=Locked Coupled
SimulatedMeasConditions=0
SlitChangerIn=0
SmootingWidth=0
Start=5.00234
Steps=3216
SynchronousRotation=0
Time=82.5

[VarInfo]
Type=PSD_DISCRIM
Flags=0
Value=0.11;0.25

[PSD]
ActualTwoTheta=9999
FirstUsedChannel=0
FixedPSD=0
PSDOpening=5.00414
PSDType=5

[Drive]
DriveFlags=1
DriveName=2Theta
DriveNumber=2
DriveOffset=0
OffsetIndex=0
OscillationAmplitude=0
OscillationSpeed=0
StartPosition=5.00234

[Drive]
DriveFlags=1
DriveName=Theta
DriveNumber=1
DriveOffset=0
OffsetIndex=0
OscillationAmplitude=0
OscillationSpeed=0
StartPosition=2.50117

[Data]
     Angle,       PSD,
   5.00234,      3505,
   5.02256,      3504,
   5.04278,      3310,
     5.063,      3368,
   5.08322,      3365,
   5.10344,      3384,
   5.12365,      3321,
   5.14387,      3278,
   5.16409,      3240,
   5.18431,      3180,
   5.20453,      3171,
   5.22475,      3114,
   5.24497,      3122,
   5.26519,      3040,
    5.2854,      3012,
   5.30562,      2919,
   5.32584,      2947,
   5.34606,      2883,
   5.36628,      3013,
    5.3865,      2872,
   5.40672,      2868,
   5.42694,      2800,
   5.44715,      2883,
   5.46737,      2785,
   5.48759,      2801,
   5.50781,      2699,
   5.52803,      2807,
   5.54825,      2661,
   5.56847,      2739,
   5.58869,      2632,
    5.6089,      2682,
   5.62912,      2597,
   5.64934,      2520,
   5.66956,      2551,
   5.68978,      2451,
      5.71,      2405,
   5.73022,      2548,
   5.75044,      2465,
   5.77065,      2365,
   5.79087,      2348,
   5.81109,      2322,
   5.83131,      2386,
   5.85153,      2287,
   5.87175,      2281,
   5.89197,      2214,
   5.91219,      2265,
    5.9324,      2314,
   5.95262,      2194,
   5.97284,      2179,
   5.99306,      2157,
   6.01328,      2200,
    6.0335,      2073,
   6.05372,      2190,
   6.07394,      2112,
   6.09415,      2159,
   6.11437,      2104,
   6.13459,      2053,
   6.15481,      2055,
   6.17503,      2108,
   6.19525,      2025,
   6.21547,      1979,
   6.23569,      1997,
    6.2559,      2069,
   6.27612,      1893,
   6.29634,      1997,
   6.31656,      2029,
   6.33678,      1870,
     6.357,      1858,
   6.37722,      1930,
   6.39744,      1822,
   6.41765,      1764,
   6.43787,      1864,
   6.45809,      1736,
   6.47831,      1789,
   6.49853,      1704,
   6.51875,      1795,
   6.53897,      1768,
   6.55919,      1766,
    6.5794,      1769,
   6.59962,      1693,
   6.61984,      1650,
   6.64006,      1639,
   6.66028,      1681,
    6.6805,      1589,
   6.70072,      1574,
   6.72094,      1648,
   6.74116,      1660,
   6.76137,      1647,
   6.78159,      1543,
   6.80181,      1537,
   6.82203,      1567,
   6.84225,      1558,
   6.86247,      1618,
   6.88269,      1470,
   6.90291,      1533,
   6.92312,      1457,
   6.94334,      1525,
   6.96356,      1501,
   6.98378,      1424,
     7.004,      1524,
   7.02422,      1476,
   7.04444,      1423,
   7.06466,      1442,
   7.08487,      1428,
   7.10509,      1442,
   7.12531,      1404,
   7.14553,      1412,
   7.16575,      1446,
   7.18597,      1301,
   7.20619,      1343,
   7.22641,      1390,
   7.24662,      1334,
   7.26684,      1356,
   7.28706,      1280,
   7.30728,      1306,
    7.3275,      1292,
   7.34772,      1343,
   7.36794,      1273,
   7.38816,      1261,
   7.40837,      1239,
   7.42859,      1211,
   7.44881,      1210,
   7.46903,      1192,
   7.48925,      1248,
   7.50947,      1142,
   7.52969,      1245,
   7.54991,      1173,
   7.57012,      1228,
   7.59034,      1165,
   7.61056,      1168,
   7.63078,      1086,
     7.651,      1116,
   7.67122,      1168,
   7.69144,      1072,
   7.71166,      1110,
   7.73187,      1077,
   7.75209,      1156,
   7.77231,      1033,
   7.79253,      1135,
   7.81275,      1076,
   7.83297,      1068,
   7.85319,      1070,
   7.87341,      1068,
   7.89362,      1009,
   7.91384,      1049,
   7.93406,      1091,
   7.95428,      1034,
    7.9745,      1037,
   7.99472,       983,
   8.01494,      1004,
   8.03516,      1032,
   8.05537,      1072,
   8.07559,      1045,
   8.09581,      1053,
   8.11603,       975,
   8.13625,       968,
   8.15647,       946,
   8.17669,       962,
   8.19691,       922,
   8.21712,      1014,
   8.23734,       985,
   8.25756,       971,
   8.27778,       948,
     8.298,       930,
   8.31822,       920,
   8.33844,       869,
   8.35866,       884,
   8.37887,       902,
   8.39909,       934,
   8.41931,       893,
   8.43953,       918,
   8.45975,       907,
   8.47997,       867,
   8.50019,       861,
   8.52041,       818,
   8.54062,       875,
   8.56084,       801,
   8.58106,       869,
   8.60128,       833,
    8.6215,       845,
   8.64172,       908,
   8.66194,       884,
   8.68216,       772,
   8.70237,       781,
   8.72259,       829,
   8.74281,       842,
   8.76303,       849,
   8.78325,       827,
   8.80347,       801,
   8.82369,       826,
   8.84391,       804,
   8.86413,       798,
   8.88434,       801,
   8.90456,       813,
   8.92478,       822,
     8.945,       817,
   8.96522,       824,
   8.98544,       817,
   9.00566,       765,
   9.02588,       761,
   9.04609,       781,
   9.06631,       767,
   9.08653,       718,
   9.10675,       717,
   9.12697,       754,
   9.14719,       704,
   9.16741,       772,
   9.18763,       783,
   9.20784,       730,
   9.22806,       721,
   9.24828,       764,
    9.2685,       743,
   9.28872,       694,
   9.30894,       758,
   9.32916,       743,
   9.34938,       718,
   9.36959,       721,
   9.38981,       766,
   9.41003,       720,
   9.43025,       738,
   9.45047,       738,
   9.47069,       656,
   9.49091,       779,
   9.51113,       682,
   9.53134,       774,
   9.55156,       765,
   9.57178,       693,
     9.592,       746,
   9.61222,       737,
   9.63244,       694,
   9.65266,       719,
   9.67288,       706,
   9.69309,       688,
   9.71331,       731,
   9.73353,       717,
   9.75375,       629,
   9.77397,       684,
   9.79419,       688,
   9.81441,       699,
   9.83463,       702,
   9.85484,       708,
   9.87506,       676,
   9.89528,       684,
    9.9155,       718,
   9.93572,       693,
   9.95594,       723,
   9.97616,       659,
   9.99638,       683,
   10.0166,       731,
   10.0368,       670,
    10.057,       725,
   10.0773,       640,
   10.0975,       692,
   10.1177,       663,
   10.1379,       722,
   10.1581,       686,
   10.1783,       723,
   10.1986,       645,
   10.2188,       721,
    10.239,       632,
   10.2592,       641,
   10.2794,       640,
   10.2997,       646,
   10.3199,       657,
   10.3401,       698,
   10.3603,       647,
   10.3805,       637,
   10.4008,       658,
    10.421,       656,
   10.4412,       614,
   10.4614,       662,
   10.4816,       610,
   10.5018,       635,
   10.5221,       635,
   10.5423,       611,
   10.5625,       632,
   10.5827,       682,
   10.6029,       632,
   10.6232,       637,
   10.6434,       658,
   10.6636,       669,
   10.6838,       641,
    10.704,       620,
   10.7243,       629,
   10.7445,       613,
   10.7647,       603,
   10.7849,       598,
   10.8051,       677,
   10.8253,       646,
   10.8456,       632,
   10.8658,       626,
    10.886,       649,
   10.9062,       639,
   10.9264,       616,
   10.9467,       575,
   10.9669,       606,
   10.9871,       588,
   11.0073,       589,
   11.0275,       615,
   11.0478,       602,
    11.068,       620,
   11.0882,       638,
   11.1084,       580,
   11.1286,       594,
   11.1488,       555,
   11.1691,       595,
   11.1893,       605,
   11.2095,       612,
   11.2297,       575,
   11.2499,       575,
   11.2702,       576,
   11.2904,       620,
   11.3106,       628,
   11.3308,       598,
    11.351,       615,
   11.3713,       625,
   11.3915,       594,
   11.4117,       616,
   11.4319,       579,
   11.4521,       592,
   11.4723,       625,
   11.4926,       591,
   11.5128,       585,
    11.533,       557,
   11.5532,       586,
   11.5734,       597,
   11.5937,       611,
   11.6139,       634,
   11.6341,       627,
   11.6543,       545,
   11.6745,       545,
   11.6948,       558,
    11.715,       576,
   11.7352,       576,
   11.7554,       567,
   11.7756,       558,
   11.7958,       567,
   11.8161,       579,
   11.8363,       601,
   11.8565,       641,
   11.8767,       588,
   11.8969,       594,
   11.9172,       627,
   11.9374,       576,
   11.9576,       560,
   11.9778,       608,
    11.998,       565,
   12.0183,       502,
   12.0385,       532,
   12.0587,       575,
   12.0789,       580,
   12.0991,       591,
   12.1193,       544,
   12.1396,       561,
   12.1598,       607,
     12.18,       534,
   12.2002,       622,
   12.2204,       533,
   12.2407,       604,
   12.2609,       587,
   12.2811,       617,
   12.3013,       560,
   12.3215,       572,
   12.3418,       628,
    12.362,       593,
   12.3822,       637,
   12.4024,       667,
   12.4226,       735,
   12.4428,       752,
   12.4631,       757,
   12.4833,       932,
   12.5035,       984,
   12.5237,      1081,
   12.5439,      1182,
   12.5642,      1191,
   12.5844,      1193,
   12.6046,      1152,
   12.6248,      1065,
    12.645,       865,
   12.6653,       716,
   12.6855,       623,
   12.7057,       630,
   12.7259,       594,
   12.7461,       627,
   12.7663,       613,
   12.7866,       565,
   12.8068,       619,
    12.827,       596,
   12.8472,       611,
   12.8674,       611,
   12.8877,       632,
   12.9079,       597,
   12.9281,       576,
   12.9483,       603,
   12.9685,       612,
   12.9888,       594,
    13.009,       605,
   13.0292,       576,
   13.0494,       609,
   13.0696,       643,
   13.0898,       645,
   13.1101,       618,
   13.1303,       679,
   13.1505,       675,
   13.1707,       672,
   13.1909,       643,
   13.2112,       683,
   13.2314,       645,
   13.2516,       691,
   13.2718,       680,
    13.292,       739,
   13.3123,       791,
   13.3325,       779,
   13.3527,       817,
   13.3729,       827,
   13.3931,       867,
   13.4133,       857,
   13.4336,      1003,
   13.4538,      1015,
    13.474,      1089,
   13.4942,      1239,
   13.5144,      1266,
   13.5347,      1490,
   13.5549,      1536,
   13.5751,      1734,
   13.5953,      2053,
   13.6155,      2397,
   13.6358,      2845,
    13.656,      3652,
   13.6762,      4782,
   13.6964,      6700,
   13.7166,      9287,
   13.7368,     12805,
   13.7571,     16480,
   13.7773,     20439,
   13.7975,     26018,
   13.8177,     32697,
   13.8379,     39651,
   13.8582,     43336,
   13.8784,     42121,
   13.8986,     35241,
   13.9188,     25616,
    13.939,     16558,
   13.9593,      9780,
   13.9795,      5376,
   13.9997,      3146,
   14.0199,      2181,
   14.0401,      1871,
   14.0603,      1755,
   14.0806,      1607,
   14.1008,      1519,
    14.121,      1622,
   14.1412,      1466,
   14.1614,      1403,
   14.1817,      1353,
   14.2019,      1276,
   14.2221,      1124,
   14.2423,      1100,
   14.2625,       977,
   14.2828,       891,
    14.303,       822,
   14.3232,       802,
   14.3434,       779,
   14.3636,       704,
   14.3838,       731,
   14.4041,       713,
   14.4243,       734,
   14.4445,       771,
   14.4647,       691,
   14.4849,       722,
   14.5052,       707,
   14.5254,       715,
   14.5456,       725,
   14.5658,       679,
    14.586,       680,
   14.6063,       731,
   14.6265,       681,
   14.6467,       659,
   14.6669,       662,
   14.6871,       673,
   14.7073,       650,
   14.7276,       661,
   14.7478,       619,
    14.768,       660,
   14.7882,       615,
   14.8084,       660,
   14.8287,       618,
   14.8489,       625,
   14.8691,       659,
   14.8893,       692,
   14.9095,       658,
   14.9298,       672,
     14.95,       653,
   14.9702,       666,
   14.9904,       593,
   15.0106,       639,
   15.0308,       637,
   15.0511,       545,
   15.0713,       595,
   15.0915,       622,
   15.1117,       619,
   15.1319,       577,
   15.1522,       611,
   15.1724,       616,
   15.1926,       647,
   15.2128,       613,
    15.233,       610,
   15.2533,       578,
   15.2735,       634,
   15.2937,       590,
   15.3139,       593,
   15.3341,       576,
   15.3543,       584,
   15.3746,       590,
   15.3948,       579,
    15.415,       610,
   15.4352,       605,
   15.4554,       588,
   15.4757,       580,
   15.4959,       549,
   15.5161,       583,
   15.5363,       601,
   15.5565,       594,
   15.5768,       587,
    15.597,       641,
   15.6172,       604,
   15.6374,       557,
   15.6576,       588,
   15.6778,       567,
   15.6981,       579,
   15.7183,       546,
   15.7385,       582,
   15.7587,       541,
   15.7789,       498,
   15.7992,       563,
   15.8194,       544,
   15.8396,       540,
   15.8598,       578,
     15.88,       585,
   15.9003,       571,
   15.9205,       568,
   15.9407,       545,
   15.9609,       509,
   15.9811,       569,
   16.0013,       512,
   16.0216,       579,
   16.0418,       548,
    16.062,       537,
   16.0822,       521,
   16.1024,       552,
   16.1227,       500,
   16.1429,       521,
   16.1631,       534,
   16.1833,       524,
   16.2035,       556,
   16.2238,       554,
    16.244,       539,
   16.2642,       533,
   16.2844,       533,
   16.3046,       575,
   16.3248,       540,
   16.3451,       548,
   16.3653,       523,
   16.3855,       500,
   16.4057,       517,
   16.4259,       552,
   16.4462,       560,
   16.4664,       507,
   16.4866,       548,
   16.5068,       475,
    16.527,       543,
   16.5473,       512,
   16.5675,       589,
   16.5877,       506,
   16.6079,       488,
   16.6281,       537,
   16.6483,       523,
   16.6686,       515,
   16.6888,       520,
    16.709,       515,
   16.7292,       481,
   16.7494,       524,
   16.7697,       518,
   16.7899,       516,
   16.8101,       532,
   16.8303,       487,
   16.8505,       500,
   16.8708,       527,
    16.891,       496,
   16.9112,       488,
   16.9314,       543,
   16.9516,       505,
   16.9718,       516,
   16.9921,       488,
   17.0123,       458,
   17.0325,       537,
   17.0527,       476,
   17.0729,       505,
   17.0932,       519,
   17.1134,       513,
   17.1336,       490,
   17.1538,       508,
    17.174,       475,
   17.1943,       488,
   17.2145,       500,
   17.2347,       503,
   17.2549,       533,
   17.2751,       562,
   17.2953,       536,
   17.3156,       533,
   17.3358,       526,
    17.356,       527,
   17.3762,       534,
   17.3964,       538,
   17.4167,       534,
   17.4369,       543,
   17.4571,       572,
   17.4773,       577,
   17.4975,       534,
   17.5178,       510,
    17.538,       530,
   17.5582,       504,
   17.5784,       510,
   17.5986,       515,
   17.6188,       507,
   17.6391,       500,
   17.6593,       516,
   17.6795,       501,
   17.6997,       491,
   17.7199,       478,
   17.7402,       464,
   17.7604,       455,
   17.7806,       477,
   17.8008,       484,
    17.821,       450,
   17.8413,       491,
   17.8615,       441,
   17.8817,       453,
   17.9019,       456,
   17.9221,       477,
   17.9423,       496,
   17.9626,       457,
   17.9828,       450,
    18.003,       454,
   18.0232,       526,
   18.0434,       490,
   18.0637,       455,
   18.0839,       472,
   18.1041,       460,
   18.1243,       462,
   18.1445,       515,
   18.1648,       487,
    18.185,       502,
   18.2052,       482,
   18.2254,       492,
   18.2456,       472,
   18.2658,       500,
   18.2861,       465,
   18.3063,       476,
   18.3265,       464,
   18.3467,       456,
   18.3669,       454,
   18.3872,       465,
   18.4074,       456,
   18.4276,       480,
   18.4478,       436,
    18.468,       449,
   18.4883,       474,
   18.5085,       448,
   18.5287,       477,
   18.5489,       439,
   18.5691,       459,
   18.5893,       433,
   18.6096,       448,
   18.6298,       454,
     18.65,       381,
   18.6702,       446,
   18.6904,       442,
   18.7107,       428,
   18.7309,       439,
   18.7511,       436,
   18.7713,       481,
   18.7915,       462,
   18.8118,       453,
    18.832,       494,
   18.8522,       448,
   18.8724,       451,
   18.8926,       432,
   18.9128,       443,
   18.9331,       497,
   18.9533,       419,
   18.9735,       478,
   18.9937,       418,
   19.0139,       449,
   19.0342,       470,
   19.0544,       463,
   19.0746,       474,
   19.0948,       432,
    19.115,       462,
   19.1353,       455,
   19.1555,       451,
   19.1757,       457,
   19.1959,       469,
   19.2161,       454,
   19.2363,       486,
   19.2566,       456,
   19.2768,       451,
    19.297,       469,
   19.3172,       478,
   19.3374,       437,
   19.3577,       445,
   19.3779,       452,
   19.3981,       420,
   19.4183,       442,
   19.4385,       421,
   19.4588,       459,
    19.479,       462,
   19.4992,       448,
   19.5194,       468,
   19.5396,       475,
   19.5599,       452,
   19.5801,       448,
   19.6003,       432,
   19.6205,       468,
   19.6407,       444,
   19.6609,       438,
   19.6812,       418,
   19.7014,       447,
   19.7216,       453,
   19.7418,       431,
    19.762,       445,
   19.7823,       437,
   19.8025,       456,
   19.8227,       460,
   19.8429,       465,
   19.8631,       424,
   19.8834,       469,
   19.9036,       431,
   19.9238,       420,
    19.944,       426,
   19.9642,       437,
   19.9844,       438,
   20.0047,       449,
   20.0249,       451,
   20.0451,       463,
   20.0653,       429,
   20.0855,       451,
   20.1058,       450,
    20.126,       446,
   20.1462,       435,
   20.1664,       454,
   20.1866,       482,
   20.2069,       438,
   20.2271,       451,
   20.2473,       446,
   20.2675,       427,
   20.2877,       470,
   20.3079,       432,
   20.3282,       461,
   20.3484,       443,
   20.3686,       426,
   20.3888,       466,
    20.409,       437,
   20.4293,       438,
   20.4495,       434,
   20.4697,       434,
   20.4899,       464,
   20.5101,       463,
   20.5304,       473,
   20.5506,       409,
   20.5708,       392,
    20.591,       453,
   20.6112,       458,
   20.6314,       463,
   20.6517,       453,
   20.6719,       442,
   20.6921,       433,
   20.7123,       394,
   20.7325,       463,
   20.7528,       437,
    20.773,       458,
   20.7932,       440,
   20.8134,       446,
   20.8336,       423,
   20.8539,       415,
   20.8741,       432,
   20.8943,       418,
   20.9145,       447,
   20.9347,       436,
   20.9549,       436,
   20.9752,       438,
   20.9954,       413,
   21.0156,       495,
   21.0358,       425,
    21.056,       463,
   21.0763,       409,
   21.0965,       426,
   21.1167,       428,
   21.1369,       454,
   21.1571,       454,
   21.1774,       426,
   21.1976,       433,
   21.2178,       434,
    21.238,       403,
   21.2582,       437,
   21.2784,       408,
   21.2987,       431,
   21.3189,       468,
   21.3391,       429,
   21.3593,       441,
   21.3795,       427,
   21.3998,       431,
     21.42,       417,
   21.4402,       446,
   21.4604,       429,
   21.4806,       431,
   21.5009,       441,
   21.5211,       410,
   21.5413,       427,
   21.5615,       434,
   21.5817,       450,
   21.6019,       478,
   21.6222,       464,
   21.6424,       464,
   21.6626,       451,
   21.6828,       461,
    21.703,       450,
   21.7233,       457,
   21.7435,       448,
   21.7637,       447,
   21.7839,       445,
   21.8041,       427,
   21.8244,       449,
   21.8446,       438,
   21.8648,       430,
    21.885,       457,
   21.9052,       483,
   21.9254,       442,
   21.9457,       466,
   21.9659,       479,
   21.9861,       480,
   22.0063,       483,
   22.0265,       519,
   22.0468,       526,
    22.067,       528,
   22.0872,       512,
   22.1074,       509,
   22.1276,       500,
   22.1479,       552,
   22.1681,       509,
   22.1883,       519,
   22.2085,       490,
   22.2287,       482,
   22.2489,       475,
   22.2692,       470,
   22.2894,       488,
   22.3096,       453,
   22.3298,       482,
     22.35,       467,
   22.3703,       437,
   22.3905,       439,
   22.4107,       456,
   22.4309,       461,
   22.4511,       496,
   22.4714,       442,
   22.4916,       499,
   22.5118,       475,
    22.532,       423,
   22.5522,       503,
   22.5724,       465,
   22.5927,       503,
   22.6129,       465,
   22.6331,       451,
   22.6533,       473,
   22.6735,       485,
   22.6938,       446,
    22.714,       454,
   22.7342,       474,
   22.7544,       411,
   22.7746,       418,
   22.7949,       459,
   22.8151,       489,
   22.8353,       495,
   22.8555,       478,
   22.8757,       457,
   22.8959,       471,
   22.9162,       458,
   22.9364,       456,
   22.9566,       450,
   22.9768,       456,
    22.997,       463,
   23.0173,       491,
   23.0375,       463,
   23.0577,       477,
   23.0779,       494,
   23.0981,       438,
   23.1184,       453,
   23.1386,       463,
   23.1588,       442,
    23.179,       490,
   23.1992,       477,
   23.2194,       452,
   23.2397,       519,
   23.2599,       428,
   23.2801,       481,
   23.3003,       481,
   23.3205,       470,
   23.3408,       450,
    23.361,       497,
   23.3812,       475,
   23.4014,       449,
   23.4216,       495,
   23.4419,       464,
   23.4621,       486,
   23.4823,       520,
   23.5025,       425,
   23.5227,       478,
   23.5429,       449,
   23.5632,       511,
   23.5834,       450,
   23.6036,       491,
   23.6238,       459,
    23.644,       447,
   23.6643,       435,
   23.6845,       456,
   23.7047,       452,
   23.7249,       497,
   23.7451,       485,
   23.7654,       473,
   23.7856,       471,
   23.8058,       450,
    23.826,       509,
   23.8462,       511,
   23.8664,       459,
   23.8867,       502,
   23.9069,       503,
   23.9271,       546,
   23.9473,       535,
   23.9675,       523,
   23.9878,       512,
    24.008,       520,
   24.0282,       522,
   24.0484,       600,
   24.0686,       594,
   24.0889,       538,
   24.1091,       574,
   24.1293,       600,
   24.1495,       630,
   24.1697,       634,
   24.1899,       651,
   24.2102,       685,
   24.2304,       791,
   24.2506,       881,
   24.2708,       993,
    24.291,      1105,
   24.3113,      1328,
   24.3315,      1562,
   24.3517,      1792,
   24.3719,      2232,
   24.3921,      2624,
   24.4124,      2987,
   24.4326,      3347,
   24.4528,      3341,
    24.473,      2923,
   24.4932,      2738,
   24.5134,      2324,
   24.5337,      1973,
   24.5539,      1482,
   24.5741,      1202,
   24.5943,      1071,
   24.6145,       912,
   24.6348,       793,
    24.655,       754,
   24.6752,       676,
   24.6954,       670,
   24.7156,       632,
   24.7359,       610,
   24.7561,       635,
   24.7763,       615,
   24.7965,       605,
   24.8167,       615,
   24.8369,       586,
   24.8572,       599,
   24.8774,       616,
   24.8976,       574,
   24.9178,       651,
    24.938,       646,
   24.9583,       639,
   24.9785,       594,
   24.9987,       558,
   25.0189,       551,
   25.0391,       452,
   25.0594,       470,
   25.0796,       524,
   25.0998,       485,
     25.12,       478,
   25.1402,       442,
   25.1604,       477,
   25.1807,       465,
   25.2009,       480,
   25.2211,       455,
   25.2413,       461,
   25.2615,       492,
   25.2818,       427,
    25.302,       471,
   25.3222,       416,
   25.3424,       413,
   25.3626,       440,
   25.3829,       481,
   25.4031,       444,
   25.4233,       443,
   25.4435,       470,
   25.4637,       408,
   25.4839,       452,
   25.5042,       461,
   25.5244,       441,
   25.5446,       446,
   25.5648,       436,
    25.585,       422,
   25.6053,       448,
   25.6255,       445,
   25.6457,       475,
   25.6659,       428,
   25.6861,       466,
   25.7064,       395,
   25.7266,       433,
   25.7468,       427,
    25.767,       405,
   25.7872,       431,
   25.8074,       443,
   25.8277,       446,
   25.8479,       466,
   25.8681,       442,
   25.8883,       451,
   25.9085,       461,
   25.9288,       453,
    25.949,       428,
   25.9692,       429,
   25.9894,       389,
   26.0096,       411,
   26.0299,       423,
   26.0501,       465,
   26.0703,       409,
   26.0905,       404,
   26.1107,       415,
   26.1309,       471,
   26.1512,       447,
   26.1714,       464,
   26.1916,       447,
   26.2118,       409,
    26.232,       467,
   26.2523,       423,
   26.2725,       445,
   26.2927,       488,
   26.3129,       447,
   26.3331,       501,
   26.3534,       449,
   26.3736,       431,
   26.3938,       435,
    26.414,       434,
   26.4342,       432,
   26.4544,       452,
   26.4747,       436,
   26.4949,       475,
   26.5151,       445,
   26.5353,       460,
   26.5555,       405,
   26.5758,       447,
    26.596,       467,
   26.6162,       463,
   26.6364,       463,
   26.6566,       407,
   26.6769,       387,
   26.6971,       431,
   26.7173,       454,
   26.7375,       396,
   26.7577,       452,
   26.7779,       460,
   26.7982,       459,
   26.8184,       482,
   26.8386,       423,
   26.8588,       504,
    26.879,       477,
   26.8993,       487,
   26.9195,       476,
   26.9397,       489,
   26.9599,       468,
   26.9801,       508,
   27.0004,       491,
   27.0206,       542,
   27.0408,       501,
    27.061,       489,
   27.0812,       518,
   27.1014,       506,
   27.1217,       575,
   27.1419,       558,
   27.1621,       571,
   27.1823,       585,
   27.2025,       594,
   27.2228,       549,
    27.243,       632,
   27.2632,       612,
   27.2834,       674,
   27.3036,       623,
   27.3239,       684,
   27.3441,       752,
   27.3643,       806,
   27.3845,       943,
   27.4047,      1173,
   27.4249,      1558,
   27.4452,      2113,
   27.4654,      2949,
   27.4856,      4136,
   27.5058,      5807,
    27.526,      7367,
   27.5463,      8651,
   27.5665,      8991,
   27.5867,      7908,
   27.6069,      6108,
   27.6271,      4899,
   27.6474,      3471,
   27.6676,      2170,
   27.6878,      1450,
    27.708,      1067,
   27.7282,       782,
   27.7484,       751,
   27.7687,       660,
   27.7889,       658,
   27.8091,       625,
   27.8293,       601,
   27.8495,       588,
   27.8698,       574,
     27.89,       576,
   27.9102,       604,
   27.9304,       552,
   27.9506,       574,
   27.9709,       499,
   27.9911,       544,
   28.0113,       449,
   28.0315,       481,
   28.0517,       494,
   28.0719,       458,
   28.0922,       447,
   28.1124,       444,
   28.1326,       456,
   28.1528,       449,
    28.173,       441,
   28.1933,       496,
   28.2135,       482,
   28.2337,       457,
   28.2539,       394,
   28.2741,       446,
   28.2944,       453,
   28.3146,       430,
   28.3348,       435,
    28.355,       427,
   28.3752,       469,
   28.3954,       416,
   28.4157,       472,
   28.4359,       418,
   28.4561,       442,
   28.4763,       414,
   28.4965,       458,
   28.5168,       476,
    28.537,       415,
   28.5572,       425,
   28.5774,       411,
   28.5976,       441,
   28.6179,       440,
   28.6381,       397,
   28.6583,       429,
   28.6785,       470,
   28.6987,       460,
   28.7189,       436,
   28.7392,       402,
   28.7594,       460,
   28.7796,       410,
   28.7998,       438,
     28.82,       401,
   28.8403,       432,
   28.8605,       473,
   28.8807,       447,
   28.9009,       444,
   28.9211,       433,
   28.9414,       456,
   28.9616,       448,
   28.9818,       446,
    29.002,       458,
   29.0222,       433,
   29.0424,       438,
   29.0627,       450,
   29.0829,       403,
   29.1031,       417,
   29.1233,       441,
   29.1435,       469,
   29.1638,       462,
    29.184,       409,
   29.2042,       452,
   29.2244,       415,
   29.2446,       440,
   29.2649,       420,
   29.2851,       434,
   29.3053,       431,
   29.3255,       427,
   29.3457,       433,
   29.3659,       368,
   29.3862,       433,
   29.4064,       435,
   29.4266,       405,
   29.4468,       419,
    29.467,       370,
   29.4873,       405,
   29.5075,       419,
   29.5277,       414,
   29.5479,       417,
   29.5681,       452,
   29.5884,       413,
   29.6086,       445,
   29.6288,       394,
    29.649,       396,
   29.6692,       414,
   29.6894,       424,
   29.7097,       447,
   29.7299,       432,
   29.7501,       428,
   29.7703,       394,
   29.7905,       405,
   29.8108,       393,
    29.831,       456,
   29.8512,       428,
   29.8714,       423,
   29.8916,       440,
   29.9119,       394,
   29.9321,       432,
   29.9523,       433,
   29.9725,       406,
   29.9927,       432,
   30.0129,       410,
   30.0332,       433,
   30.0534,       449,
   30.0736,       470,
   30.0938,       452,
    30.114,       451,
   30.1343,       471,
   30.1545,       478,
   30.1747,       475,
   30.1949,       430,
   30.2151,       454,
   30.2354,       487,
   30.2556,       452,
   30.2758,       462,
    30.296,       437,
   30.3162,       463,
   30.3365,       456,
   30.3567,       453,
   30.3769,       455,
   30.3971,       468,
   30.4173,       509,
   30.4375,       458,
   30.4578,       477,
    30.478,       472,
   30.4982,       493,
   30.5184,       483,
   30.5386,       487,
   30.5589,       525,
   30.5791,       495,
   30.5993,       588,
   30.6195,       570,
   30.6397,       615,
     30.66,       697,
   30.6802,       750,
   30.7004,       868,
   30.7206,      1010,
   30.7408,      1240,
    30.761,      1507,
   30.7813,      1802,
   30.8015,      2176,
   30.8217,      2364,
   30.8419,      2463,
   30.8621,      2269,
   30.8824,      2141,
   30.9026,      1849,
   30.9228,      1594,
    30.943,      1248,
   30.9632,      1048,
   30.9835,       865,
   31.0037,       718,
   31.0239,       695,
   31.0441,       641,
   31.0643,       612,
   31.0845,       555,
   31.1048,       549,
    31.125,       478,
   31.1452,       495,
   31.1654,       431,
   31.1856,       468,
   31.2059,       470,
   31.2261,       439,
   31.2463,       467,
   31.2665,       475,
   31.2867,       475,
    31.307,       459,
   31.3272,       466,
   31.3474,       479,
   31.3676,       452,
   31.3878,       454,
    31.408,       463,
   31.4283,       454,
   31.4485,       474,
   31.4687,       451,
   31.4889,       476,
   31.5091,       421,
   31.5294,       449,
   31.5496,       463,
   31.5698,       435,
     31.59,       387,
   31.6102,       441,
   31.6305,       467,
   31.6507,       471,
   31.6709,       446,
   31.6911,       486,
   31.7113,       456,
   31.7315,       451,
   31.7518,       514,
    31.772,       537,
   31.7922,       565,
   31.8124,       568,
   31.8326,       642,
   31.8529,       660,
   31.8731,       707,
   31.8933,       831,
   31.9135,       971,
   31.9337,      1081,
    31.954,      1202,
   31.9742,      1323,
   31.9944,      1424,
   32.0146,      1428,
   32.0348,      1414,
    32.055,      1299,
   32.0753,      1221,
   32.0955,      1100,
   32.1157,      1094,
   32.1359,       995,
   32.1561,      1033,
   32.1764,      1002,
   32.1966,      1023,
   32.2168,       950,
    32.237,       889,
   32.2572,       875,
   32.2775,       770,
   32.2977,       675,
   32.3179,       617,
   32.3381,       571,
   32.3583,       506,
   32.3785,       450,
   32.3988,       458,
    32.419,       434,
   32.4392,       455,
   32.4594,       407,
   32.4796,       376,
   32.4999,       433,
   32.5201,       416,
   32.5403,       424,
   32.5605,       465,
   32.5807,       401,
    32.601,       389,
   32.6212,       375,
   32.6414,       392,
   32.6616,       427,
   32.6818,       381,
    32.702,       391,
   32.7223,       378,
   32.7425,       384,
   32.7627,       388,
   32.7829,       361,
   32.8031,       436,
   32.8234,       353,
   32.8436,       375,
   32.8638,       406,
    32.884,       394,
   32.9042,       413,
   32.9245,       417,
   32.9447,       419,
   32.9649,       396,
   32.9851,       426,
   33.0053,       461,
   33.0255,       458,
   33.0458,       502,
    33.066,       487,
   33.0862,       512,
   33.1064,       515,
   33.1266,       482,
   33.1469,       480,
   33.1671,       447,
   33.1873,       430,
   33.2075,       443,
   33.2277,       422,
    33.248,       421,
   33.2682,       362,
   33.2884,       422,
   33.3086,       382,
   33.3288,       361,
    33.349,       386,
   33.3693,       364,
   33.3895,       376,
   33.4097,       378,
   33.4299,       395,
   33.4501,       391,
   33.4704,       406,
   33.4906,       414,
   33.5108,       408,
    33.531,       423,
   33.5512,       392,
   33.5715,       392,
   33.5917,       437,
   33.6119,       453,
   33.6321,       482,
   33.6523,       555,
   33.6725,       509,
   33.6928,       539,
    33.713,       552,
   33.7332,       558,
   33.7534,       530,
   33.7736,       513,
   33.7939,       509,
   33.8141,       488,
   33.8343,       482,
   33.8545,       506,
   33.8747,       480,
    33.895,       505,
   33.9152,       518,
   33.9354,       526,
   33.9556,       550,
   33.9758,       564,
    33.996,       612,
   34.0163,       650,
   34.0365,       757,
   34.0567,       809,
   34.0769,       876,
   34.0971,      1049,
   34.1174,      1191,
   34.1376,      1482,
   34.1578,      1737,
    34.178,      2081,
   34.1982,      2380,
   34.2185,      2703,
   34.2387,      2913,
   34.2589,      2910,
   34.2791,      2774,
   34.2993,      2548,
   34.3195,      2236,
   34.3398,      1890,
     34.36,      1573,
   34.3802,      1243,
   34.4004,      1002,
   34.4206,       814,
   34.4409,       773,
   34.4611,       678,
   34.4813,       657,
   34.5015,       578,
   34.5217,       573,
    34.542,       562,
   34.5622,       530,
   34.5824,       551,
   34.6026,       494,
   34.6228,       479,
    34.643,       481,
   34.6633,       423,
   34.6835,       443,
   34.7037,       436,
   34.7239,       460,
   34.7441,       460,
   34.7644,       460,
   34.7846,       447,
   34.8048,       444,
    34.825,       457,
   34.8452,       448,
   34.8655,       496,
   34.8857,       474,
   34.9059,       472,
   34.9261,       434,
   34.9463,       484,
   34.9665,       467,
   34.9868,       423,
    35.007,       435,
   35.0272,       430,
   35.0474,       445,
   35.0676,       370,
   35.0879,       375,
   35.1081,       397,
   35.1283,       452,
   35.1485,       424,
   35.1687,       401,
    35.189,       405,
   35.2092,       413,
   35.2294,       390,
   35.2496,       365,
   35.2698,       362,
     35.29,       380,
   35.3103,       355,
   35.3305,       345,
   35.3507,       368,
   35.3709,       375,
   35.3911,       376,
   35.4114,       367,
   35.4316,       399,
   35.4518,       367,
    35.472,       363,
   35.4922,       360,
   35.5125,       371,
   35.5327,       378,
   35.5529,       374,
   35.5731,       349,
   35.5933,       358,
   35.6135,       348,
   35.6338,       389,
    35.654,       386,
   35.6742,       327,
   35.6944,       329,
   35.7146,       321,
   35.7349,       332,
   35.7551,       338,
   35.7753,       344,
   35.7955,       335,
   35.8157,       344,
    35.836,       370,
   35.8562,       353,
   35.8764,       363,
   35.8966,       383,
   35.9168,       339,
    35.937,       345,
   35.9573,       361,
   35.9775,       348,
   35.9977,       340,
   36.0179,       362,
   36.0381,       354,
   36.0584,       343,
   36.0786,       371,
   36.0988,       383,
    36.119,       393,
   36.1392,       366,
   36.1595,       415,
   36.1797,       429,
   36.1999,       445,
   36.2201,       409,
   36.2403,       415,
   36.2605,       434,
   36.2808,       402,
    36.301,       475,
   36.3212,       457,
   36.3414,       487,
   36.3616,       508,
   36.3819,       566,
   36.4021,       569,
   36.4223,       693,
   36.4425,       745,
   36.4627,       858,
    36.483,       948,
   36.5032,      1190,
   36.5234,      1343,
   36.5436,      1604,
   36.5638,      1784,
    36.584,      1831,
   36.6043,      1946,
   36.6245,      1880,
   36.6447,      1753,
   36.6649,      1601,
   36.6851,      1370,
   36.7054,      1235,
   36.7256,      1067,
   36.7458,       892,
    36.766,       801,
   36.7862,       727,
   36.8065,       715,
   36.8267,       620,
   36.8469,       593,
   36.8671,       603,
   36.8873,       565,
   36.9075,       610,
   36.9278,       617,
    36.948,       595,
   36.9682,       607,
   36.9884,       642,
   37.0086,       659,
   37.0289,       718,
   37.0491,       769,
   37.0693,       794,
   37.0895,       977,
   37.1097,      1106,
     37.13,      1330,
   37.1502,      1647,
   37.1704,      2170,
   37.1906,      2790,
   37.2108,      3687,
    37.231,      4943,
   37.2513,      6395,
   37.2715,      7601,
   37.2917,      8142,
   37.3119,      7925,
   37.3321,      7144,
   37.3524,      6359,
   37.3726,      5297,
   37.3928,      4497,
    37.413,      3498,
   37.4332,      2462,
   37.4535,      1822,
   37.4737,      1389,
   37.4939,      1084,
   37.5141,       938,
   37.5343,       860,
   37.5545,       796,
   37.5748,       724,
    37.595,       696,
   37.6152,       689,
   37.6354,       646,
   37.6556,       656,
   37.6759,       610,
   37.6961,       602,
   37.7163,       589,
   37.7365,       622,
   37.7567,       608,
    37.777,       572,
   37.7972,       613,
   37.8174,       567,
   37.8376,       530,
   37.8578,       511,
    37.878,       514,
   37.8983,       526,
   37.9185,       451,
   37.9387,       412,
   37.9589,       416,
   37.9791,       436,
   37.9994,       408,
   38.0196,       435,
   38.0398,       423,
     38.06,       418,
   38.0802,       421,
   38.1005,       395,
   38.1207,       378,
   38.1409,       421,
   38.1611,       425,
   38.1813,       370,
   38.2015,       397,
   38.2218,       424,
    38.242,       366,
   38.2622,       377,
   38.2824,       401,
   38.3026,       410,
   38.3229,       451,
   38.3431,       458,
   38.3633,       404,
   38.3835,       421,
   38.4037,       472,
    38.424,       499,
   38.4442,       489,
   38.4644,       567,
   38.4846,       529,
   38.5048,       544,
    38.525,       563,
   38.5453,       589,
   38.5655,       536,
   38.5857,       536,
   38.6059,       520,
   38.6261,       506,
   38.6464,       477,
   38.6666,       526,
   38.6868,       542,
    38.707,       502,
   38.7272,       545,
   38.7475,       591,
   38.7677,       627,
   38.7879,       650,
   38.8081,       712,
   38.8283,       822,
   38.8485,       974,
   38.8688,      1108,
    38.889,      1170,
   38.9092,      1397,
   38.9294,      1422,
   38.9496,      1400,
   38.9699,      1329,
   38.9901,      1335,
   39.0103,      1211,
   39.0305,      1152,
   39.0507,      1001,
    39.071,       934,
   39.0912,       929,
   39.1114,       885,
   39.1316,       993,
   39.1518,      1049,
    39.172,      1202,
   39.1923,      1366,
   39.2125,      1492,
   39.2327,      1485,
   39.2529,      1486,
   39.2731,      1453,
   39.2934,      1333,
   39.3136,      1344,
   39.3338,      1138,
    39.354,      1015,
   39.3742,       899,
   39.3945,       769,
   39.4147,       618,
   39.4349,       607,
   39.4551,       548,
   39.4753,       545,
   39.4955,       506,
   39.5158,       474,
    39.536,       464,
   39.5562,       457,
   39.5764,       420,
   39.5966,       413,
   39.6169,       378,
   39.6371,       386,
   39.6573,       385,
   39.6775,       410,
   39.6977,       398,
    39.718,       360,
   39.7382,       386,
   39.7584,       360,
   39.7786,       365,
   39.7988,       337,
    39.819,       378,
   39.8393,       348,
   39.8595,       341,
   39.8797,       385,
   39.8999,       307,
   39.9201,       366,
   39.9404,       355,
   39.9606,       370,
   39.9808,       321,
    40.001,       316,
   40.0212,       339,
   40.0415,       334,
   40.0617,       378,
   40.0819,       331,
   40.1021,       387,
   40.1223,       368,
   40.1425,       373,
   40.1628,       358,
    40.183,       385,
   40.2032,       378,
   40.2234,       375,
   40.2436,       380,
   40.2639,       347,
   40.2841,       334,
   40.3043,       367,
   40.3245,       389,
   40.3447,       374,
    40.365,       325,
   40.3852,       347,
   40.4054,       365,
   40.4256,       393,
   40.4458,       438,
    40.466,       405,
   40.4863,       394,
   40.5065,       427,
   40.5267,       465,
   40.5469,       458,
   40.5671,       500,
   40.5874,       556,
   40.6076,       543,
   40.6278,       548,
    40.648,       496,
   40.6682,       492,
   40.6885,       502,
   40.7087,       464,
   40.7289,       464,
   40.7491,       410,
   40.7693,       428,
   40.7895,       384,
   40.8098,       418,
     40.83,       397,
   40.8502,       396,
   40.8704,       391,
   40.8906,       400,
   40.9109,       354,
   40.9311,       359,
   40.9513,       373,
   40.9715,       370,
   40.9917,       357,
    41.012,       357,
   41.0322,       333,
   41.0524,       330,
   41.0726,       361,
   41.0928,       373,
   41.1131,       390,
   41.1333,       369,
   41.1535,       404,
   41.1737,       365,
   41.1939,       337,
   41.2141,       327,
   41.2344,       345,
   41.2546,       360,
   41.2748,       335,
    41.295,       361,
   41.3152,       345,
   41.3355,       350,
   41.3557,       374,
   41.3759,       357,
   41.3961,       341,
   41.4163,       365,
   41.4366,       375,
   41.4568,       396,
    41.477,       364,
   41.4972,       373,
   41.5174,       378,
   41.5376,       425,
   41.5579,       417,
   41.5781,       478,
   41.5983,       621,
   41.6185,       688,
   41.6387,       747,
    41.659,       713,
   41.6792,       667,
   41.6994,       646,
   41.7196,       659,
   41.7398,       544,
   41.7601,       536,
   41.7803,       479,
   41.8005,       445,
   41.8207,       396,
   41.8409,       399,
   41.8611,       351,
   41.8814,       364,
   41.9016,       359,
   41.9218,       375,
    41.942,       343,
   41.9622,       372,
   41.9825,       350,
   42.0027,       391,
   42.0229,       366,
   42.0431,       373,
   42.0633,       397,
   42.0836,       408,
   42.1038,       390,
    42.124,       390,
   42.1442,       405,
   42.1644,       422,
   42.1846,       448,
   42.2049,       433,
   42.2251,       534,
   42.2453,       549,
   42.2655,       626,
   42.2857,       641,
    42.306,       755,
   42.3262,       797,
   42.3464,       833,
   42.3666,       848,
   42.3868,       882,
   42.4071,       963,
   42.4273,       987,
   42.4475,      1027,
   42.4677,       973,
   42.4879,      1038,
   42.5081,       966,
   42.5284,       924,
   42.5486,       986,
   42.5688,       835,
    42.589,       820,
   42.6092,       722,
   42.6295,       689,
   42.6497,       625,
   42.6699,       652,
   42.6901,       556,
   42.7103,       497,
   42.7306,       531,
   42.7508,       446,
    42.771,       438,
   42.7912,       425,
   42.8114,       423,
   42.8316,       415,
   42.8519,       374,
   42.8721,       381,
   42.8923,       393,
   42.9125,       404,
   42.9327,       418,
    42.953,       403,
   42.9732,       405,
   42.9934,       407,
   43.0136,       422,
   43.0338,       414,
   43.0541,       429,
   43.0743,       434,
   43.0945,       413,
   43.1147,       426,
   43.1349,       429,
   43.1551,       418,
   43.1754,       407,
   43.1956,       429,
   43.2158,       411,
    43.236,       371,
   43.2562,       363,
   43.2765,       368,
   43.2967,       330,
   43.3169,       349,
   43.3371,       339,
   43.3573,       349,
   43.3776,       359,
   43.3978,       342,
    43.418,       349,
   43.4382,       371,
   43.4584,       348,
   43.4786,       331,
   43.4989,       356,
   43.5191,       389,
   43.5393,       352,
   43.5595,       319,
   43.5797,       344,
      43.6,       374,
   43.6202,       360,
   43.6404,       366,
   43.6606,       369,
   43.6808,       394,
   43.7011,       463,
   43.7213,       433,
   43.7415,       500,
   43.7617,       538,
   43.7819,       550,
   43.8021,       573,
   43.8224,       582,
   43.8426,       569,
   43.8628,       552,
    43.883,       559,
   43.9032,       586,
   43.9235,       570,
   43.9437,       600,
   43.9639,       544,
   43.9841,       521,
   44.0043,       498,
   44.0246,       449,
   44.0448,       461,
    44.065,       438,
   44.0852,       437,
   44.1054,       405,
   44.1256,       398,
   44.1459,       403,
   44.1661,       388,
   44.1863,       413,
   44.2065,       409,
   44.2267,       411,
    44.247,       379,
   44.2672,       395,
   44.2874,       433,
   44.3076,       382,
   44.3278,       382,
   44.3481,       439,
   44.3683,       426,
   44.3885,       451,
   44.4087,       544,
   44.4289,       549,
   44.4491,       608,
   44.4694,       750,
   44.4896,       892,
   44.5098,       962,
     44.53,      1030,
   44.5502,      1065,
   44.5705,      1042,
   44.5907,       982,
   44.6109,       856,
   44.6311,       863,
   44.6513,       731,
   44.6716,       678,
   44.6918,       640,
    44.712,       557,
   44.7322,       562,
   44.7524,       491,
   44.7726,       417,
   44.7929,       410,
   44.8131,       432,
   44.8333,       405,
   44.8535,       399,
   44.8737,       388,
    44.894,       389,
   44.9142,       396,
   44.9344,       429,
   44.9546,       411,
   44.9748,       447,
   44.9951,       452,
   45.0153,       435,
   45.0355,       466,
   45.0557,       500,
   45.0759,       570,
   45.0961,       601,
   45.1164,       631,
   45.1366,       640,
   45.1568,       745,
    45.177,       754,
   45.1972,       683,
   45.2175,       730,
   45.2377,       687,
   45.2579,       750,
   45.2781,       676,
   45.2983,       627,
   45.3186,       692,
   45.3388,       690,
    45.359,       697,
   45.3792,       687,
   45.3994,       701,
   45.4196,       682,
   45.4399,       650,
   45.4601,       609,
   45.4803,       597,
   45.5005,       535,
   45.5207,       540,
    45.541,       465,
   45.5612,       421,
   45.5814,       425,
   45.6016,       394,
   45.6218,       363,
   45.6421,       387,
   45.6623,       322,
   45.6825,       336,
   45.7027,       345,
   45.7229,       322,
   45.7431,       304,
   45.7634,       330,
   45.7836,       343,
   45.8038,       302,
    45.824,       301,
   45.8442,       299,
   45.8645,       314,
   45.8847,       276,
   45.9049,       302,
   45.9251,       318,
   45.9453,       292,
   45.9656,       317,
   45.9858,       258,
    46.006,       302,
   46.0262,       266,
   46.0464,       294,
   46.0666,       327,
   46.0869,       289,
   46.1071,       272,
   46.1273,       292,
   46.1475,       293,
   46.1677,       327,
    46.188,       291,
   46.2082,       260,
   46.2284,       290,
   46.2486,       291,
   46.2688,       296,
   46.2891,       315,
   46.3093,       344,
   46.3295,       331,
   46.3497,       321,
   46.3699,       313,
   46.3901,       308,
   46.4104,       310,
   46.4306,       280,
   46.4508,       289,
    46.471,       271,
   46.4912,       298,
   46.5115,       285,
   46.5317,       256,
   46.5519,       289,
   46.5721,       285,
   46.5923,       310,
   46.6126,       297,
   46.6328,       254,
    46.653,       313,
   46.6732,       277,
   46.6934,       292,
   46.7136,       308,
   46.7339,       279,
   46.7541,       248,
   46.7743,       300,
   46.7945,       298,
   46.8147,       266,
    46.835,       308,
   46.8552,       294,
   46.8754,       266,
   46.8956,       287,
   46.9158,       270,
   46.9361,       286,
   46.9563,       282,
   46.9765,       303,
   46.9967,       305,
   47.0169,       272,
   47.0371,       306,
   47.0574,       271,
   47.0776,       275,
   47.0978,       290,
    47.118,       258,
   47.1382,       255,
   47.1585,       291,
   47.1787,       293,
   47.1989,       280,
   47.2191,       289,
   47.2393,       296,
   47.2596,       277,
   47.2798,       291,
      47.3,       325,
   47.3202,       260,
   47.3404,       287,
   47.3606,       292,
   47.3809,       301,
   47.4011,       283,
   47.4213,       282,
   47.4415,       283,
   47.4617,       306,
    47.482,       292,
   47.5022,       320,
   47.5224,       302,
   47.5426,       287,
   47.5628,       301,
   47.5831,       332,
   47.6033,       330,
   47.6235,       340,
   47.6437,       360,
   47.6639,       350,
   47.6841,       403,
   47.7044,       383,
   47.7246,       439,
   47.7448,       440,
    47.765,       540,
   47.7852,       553,
   47.8055,       600,
   47.8257,       622,
   47.8459,       713,
   47.8661,       612,
   47.8863,       614,
   47.9066,       591,
   47.9268,       554,
    47.947,       545,
   47.9672,       484,
   47.9874,       491,
   48.0076,       435,
   48.0279,       392,
   48.0481,       416,
   48.0683,       338,
   48.0885,       355,
   48.1087,       361,
    48.129,       335,
   48.1492,       346,
   48.1694,       371,
   48.1896,       398,
   48.2098,       371,
   48.2301,       394,
   48.2503,       380,
   48.2705,       352,
   48.2907,       375,
   48.3109,       363,
   48.3311,       338,
   48.3514,       390,
   48.3716,       389,
   48.3918,       374,
    48.412,       447,
   48.4322,       475,
   48.4525,       495,
   48.4727,       510,
   48.4929,       496,
   48.5131,       504,
   48.5333,       446,
   48.5536,       456,
   48.5738,       437,
    48.594,       439,
   48.6142,       376,
   48.6344,       423,
   48.6546,       353,
   48.6749,       313,
   48.6951,       333,
   48.7153,       326,
   48.7355,       287,
   48.7557,       291,
    48.776,       256,
   48.7962,       260,
   48.8164,       289,
   48.8366,       288,
   48.8568,       287,
   48.8771,       288,
   48.8973,       301,
   48.9175,       266,
   48.9377,       269,
   48.9579,       261,
   48.9781,       304,
   48.9984,       258,
   49.0186,       292,
   49.0388,       267,
    49.059,       246,
   49.0792,       253,
   49.0995,       253,
   49.1197,       261,
   49.1399,       249,
   49.1601,       273,
   49.1803,       283,
   49.2006,       300,
   49.2208,       261,
    49.241,       263,
   49.2612,       267,
   49.2814,       262,
   49.3016,       290,
   49.3219,       233,
   49.3421,       269,
   49.3623,       261,
   49.3825,       272,
   49.4027,       274,
    49.423,       287,
   49.4432,       272,
   49.4634,       277,
   49.4836,       271,
   49.5038,       310,
   49.5241,       278,
   49.5443,       263,
   49.5645,       279,
   49.5847,       298,
   49.6049,       312,
   49.6251,       287,
   49.6454,       305,
   49.6656,       293,
   49.6858,       301,
    49.706,       309,
   49.7262,       279,
   49.7465,       298,
   49.7667,       300,
   49.7869,       293,
   49.8071,       302,
   49.8273,       271,
   49.8476,       284,
   49.8678,       290,
    49.888,       266,
   49.9082,       290,
   49.9284,       260,
   49.9486,       289,
   49.9689,       276,
   49.9891,       275,
   50.0093,       293,
   50.0295,       248,
   50.0497,       231,
     50.07,       265,
   50.0902,       268,
   50.1104,       297,
   50.1306,       284,
   50.1508,       271,
   50.1711,       236,
   50.1913,       315,
   50.2115,       279,
   50.2317,       301,
   50.2519,       278,
   50.2721,       299,
   50.2924,       308,
   50.3126,       294,
   50.3328,       295,
    50.353,       317,
   50.3732,       346,
   50.3935,       347,
   50.4137,       375,
   50.4339,       393,
   50.4541,       476,
   50.4743,       531,
   50.4946,       587,
   50.5148,       672,
    50.535,       622,
   50.5552,       544,
   50.5754,       554,
   50.5956,       562,
   50.6159,       524,
   50.6361,       507,
   50.6563,       482,
   50.6765,       444,
   50.6967,       411,
    50.717,       380,
   50.7372,       380,
   50.7574,       360,
   50.7776,       387,
   50.7978,       368,
   50.8181,       331,
   50.8383,       351,
   50.8585,       388,
   50.8787,       375,
   50.8989,       377,
   50.9191,       429,
   50.9394,       438,
   50.9596,       461,
   50.9798,       480,
        51,       516,
   51.0202,       565,
   51.0405,       563,
   51.0607,       613,
   51.0809,       591,
   51.1011,       629,
   51.1213,       617,
   51.1416,       620,
   51.1618,       614,
    51.182,       628,
   51.2022,       625,
   51.2224,       580,
   51.2426,       567,
   51.2629,       544,
   51.2831,       520,
   51.3033,       541,
   51.3235,       571,
   51.3437,       649,
    51.364,       662,
   51.3842,       693,
   51.4044,       683,
   51.4246,       625,
   51.4448,       564,
   51.4651,       545,
   51.4853,       575,
   51.5055,       515,
   51.5257,       469,
   51.5459,       401,
   51.5661,       396,
   51.5864,       387,
   51.6066,       363,
   51.6268,       337,
    51.647,       311,
   51.6672,       334,
   51.6875,       306,
   51.7077,       304,
   51.7279,       305,
   51.7481,       274,
   51.7683,       267,
   51.7886,       291,
   51.8088,       277,
    51.829,       275,
   51.8492,       304,
   51.8694,       307,
   51.8897,       280,
   51.9099,       270,
   51.9301,       265,
   51.9503,       321,
   51.9705,       319,
   51.9907,       289,
    52.011,       319,
   52.0312,       335,
   52.0514,       326,
   52.0716,       307,
   52.0918,       340,
   52.1121,       328,
   52.1323,       299,
   52.1525,       310,
   52.1727,       321,
   52.1929,       301,
   52.2132,       313,
   52.2334,       322,
   52.2536,       279,
   52.2738,       323,
    52.294,       301,
   52.3142,       295,
   52.3345,       297,
   52.3547,       277,
   52.3749,       302,
   52.3951,       268,
   52.4153,       266,
   52.4356,       314,
   52.4558,       321,
    52.476,       307,
   52.4962,       315,
   52.5164,       310,
   52.5367,       325,
   52.5569,       311,
   52.5771,       315,
   52.5973,       318,
   52.6175,       304,
   52.6377,       307,
    52.658,       291,
   52.6782,       274,
   52.6984,       288,
   52.7186,       279,
   52.7388,       266,
   52.7591,       285,
   52.7793,       271,
   52.7995,       276,
   52.8197,       281,
   52.8399,       291,
   52.8602,       286,
   52.8804,       278,
   52.9006,       313,
   52.9208,       329,
    52.941,       291,
   52.9612,       293,
   52.9815,       311,
   53.0017,       306,
   53.0219,       282,
   53.0421,       301,
   53.0623,       302,
   53.0826,       361,
   53.1028,       330,
    53.123,       349,
   53.1432,       341,
   53.1634,       341,
   53.1837,       351,
   53.2039,       420,
   53.2241,       437,
   53.2443,       465,
   53.2645,       426,
   53.2847,       455,
    53.305,       520,
   53.3252,       551,
   53.3454,       572,
   53.3656,       626,
   53.3858,       737,
   53.4061,       817,
   53.4263,       939,
   53.4465,      1149,
   53.4667,      1425,
   53.4869,      1643,
   53.5072,      2010,
   53.5274,      2496,
   53.5476,      2705,
   53.5678,      3099,
    53.588,      3001,
   53.6082,      2939,
   53.6285,      2712,
   53.6487,      2636,
   53.6689,      2553,
   53.6891,      2355,
   53.7093,      2050,
   53.7296,      1817,
   53.7498,      1663,
     53.77,      1382,
   53.7902,      1153,
   53.8104,       999,
   53.8307,       930,
   53.8509,       865,
   53.8711,       827,
   53.8913,       826,
   53.9115,       801,
   53.9317,       894,
    53.952,      1058,
   53.9722,      1143,
   53.9924,      1340,
   54.0126,      1436,
   54.0328,      1438,
   54.0531,      1421,
   54.0733,      1330,
   54.0935,      1209,
   54.1137,      1168,
   54.1339,      1121,
   54.1542,      1025,
   54.1744,       958,
   54.1946,       806,
   54.2148,       703,
    54.235,       577,
   54.2552,       556,
   54.2755,       490,
   54.2957,       447,
   54.3159,       419,
   54.3361,       380,
   54.3563,       387,
   54.3766,       351,
   54.3968,       328,
    54.417,       359,
   54.4372,       357,
   54.4574,       351,
   54.4777,       290,
   54.4979,       326,
   54.5181,       321,
   54.5383,       307,
   54.5585,       267,
   54.5787,       325,
    54.599,       309,
   54.6192,       302,
   54.6394,       286,
   54.6596,       302,
   54.6798,       310,
   54.7001,       288,
   54.7203,       324,
   54.7405,       330,
   54.7607,       285,
   54.7809,       297,
   54.8012,       324,
   54.8214,       296,
   54.8416,       298,
   54.8618,       342,
    54.882,       284,
   54.9022,       289,
   54.9225,       275,
   54.9427,       259,
   54.9629,       244,
   54.9831,       266,
   55.0033,       279,
   55.0236,       236,
   55.0438,       256,
    55.064,       245,
   55.0842,       268,
   55.1044,       253,
   55.1247,       242,
   55.1449,       257,
   55.1651,       268,
   55.1853,       255,
   55.2055,       254,
   55.2257,       248,
    55.246,       248,
   55.2662,       246,
   55.2864,       248,
   55.3066,       226,
   55.3268,       249,
   55.3471,       246,
   55.3673,       257,
   55.3875,       255,
   55.4077,       234,
   55.4279,       225,
   55.4482,       256,
   55.4684,       254,
   55.4886,       234,
   55.5088,       249,
    55.529,       260,
   55.5492,       252,
   55.5695,       264,
   55.5897,       252,
   55.6099,       252,
   55.6301,       271,
   55.6503,       263,
   55.6706,       251,
   55.6908,       280,
    55.711,       236,
   55.7312,       244,
   55.7514,       279,
   55.7717,       288,
   55.7919,       229,
   55.8121,       269,
   55.8323,       268,
   55.8525,       264,
   55.8727,       243,
    55.893,       288,
   55.9132,       297,
   55.9334,       308,
   55.9536,       300,
   55.9738,       300,
   55.9941,       289,
   56.0143,       283,
   56.0345,       307,
   56.0547,       290,
   56.0749,       314,
   56.0952,       337,
   56.1154,       325,
   56.1356,       302,
   56.1558,       336,
    56.176,       392,
   56.1962,       392,
   56.2165,       384,
   56.2367,       403,
   56.2569,       443,
   56.2771,       462,
   56.2973,       527,
   56.3176,       588,
   56.3378,       714,
    56.358,       910,
   56.3782,      1119,
   56.3984,      1391,
   56.4187,      1524,
   56.4389,      1616,
   56.4591,      1492,
   56.4793,      1290,
   56.4995,      1172,
   56.5197,      1185,
     56.54,      1109,
   56.5602,      1099,
   56.5804,      1032,
   56.6006,       872,
   56.6208,       794,
   56.6411,       656,
   56.6613,       550,
   56.6815,       507,
   56.7017,       467,
   56.7219,       481,
   56.7422,       439,
   56.7624,       436,
   56.7826,       468,
   56.8028,       491,
    56.823,       487,
   56.8432,       487,
   56.8635,       580,
   56.8837,       579,
   56.9039,       701,
   56.9241,       780,
   56.9443,       777,
   56.9646,       870,
   56.9848,       853,
    57.005,       896,
   57.0252,       897,
   57.0454,      1028,
   57.0657,       944,
   57.0859,       964,
   57.1061,       990,
   57.1263,       977,
   57.1465,       899,
   57.1667,       856,
    57.187,       832,
   57.2072,       744,
   57.2274,       700,
   57.2476,       721,
   57.2678,       592,
   57.2881,       571,
   57.3083,       504,
   57.3285,       483,
   57.3487,       478,
   57.3689,       423,
   57.3892,       374,
   57.4094,       384,
   57.4296,       400,
   57.4498,       351,
     57.47,       320,
   57.4902,       332,
   57.5105,       339,
   57.5307,       329,
   57.5509,       323,
   57.5711,       320,
   57.5913,       311,
   57.6116,       326,
   57.6318,       315,
    57.652,       277,
   57.6722,       276,
   57.6924,       264,
   57.7127,       301,
   57.7329,       310,
   57.7531,       286,
   57.7733,       262,
   57.7935,       259,
   57.8137,       282,
    57.834,       288,
   57.8542,       283,
   57.8744,       252,
   57.8946,       232,
   57.9148,       259,
   57.9351,       267,
   57.9553,       261,
   57.9755,       270,
   57.9957,       265,
   58.0159,       261,
   58.0362,       246,
   58.0564,       261,
   58.0766,       213,
   58.0968,       245,
    58.117,       225,
   58.1372,       257,
   58.1575,       230,
   58.1777,       285,
   58.1979,       255,
   58.2181,       242,
   58.2383,       215,
   58.2586,       237,
   58.2788,       255,
    58.299,       220,
   58.3192,       246,
   58.3394,       211,
   58.3597,       241,
   58.3799,       243,
   58.4001,       255,
   58.4203,       228,
   58.4405,       247,
   58.4607,       208,
    58.481,       264,
   58.5012,       252,
   58.5214,       224,
   58.5416,       242,
   58.5618,       241,
   58.5821,       245,
   58.6023,       234,
   58.6225,       232,
   58.6427,       244,
   58.6629,       269,
   58.6832,       251,
   58.7034,       257,
   58.7236,       230,
   58.7438,       286,
    58.764,       251,
   58.7842,       257,
   58.8045,       288,
   58.8247,       261,
   58.8449,       288,
   58.8651,       306,
   58.8853,       278,
   58.9056,       282,
   58.9258,       281,
    58.946,       275,
   58.9662,       278,
   58.9864,       299,
   59.0067,       291,
   59.0269,       282,
   59.0471,       316,
   59.0673,       323,
   59.0875,       359,
   59.1077,       357,
    59.128,       397,
   59.1482,       446,
   59.1684,       475,
   59.1886,       561,
   59.2088,       585,
   59.2291,       647,
   59.2493,       681,
   59.2695,       707,
   59.2897,       730,
   59.3099,       674,
   59.3302,       676,
   59.3504,       682,
   59.3706,       709,
   59.3908,       720,
    59.411,       732,
   59.4312,       692,
   59.4515,       650,
   59.4717,       625,
   59.4919,       558,
   59.5121,       530,
   59.5323,       536,
   59.5526,       526,
   59.5728,       475,
    59.593,       419,
   59.6132,       397,
   59.6334,       394,
   59.6537,       351,
   59.6739,       353,
   59.6941,       356,
   59.7143,       299,
   59.7345,       286,
   59.7547,       288,
    59.775,       305,
   59.7952,       308,
   59.8154,       309,
   59.8356,       322,
   59.8558,       277,
   59.8761,       317,
   59.8963,       320,
   59.9165,       305,
   59.9367,       334,
   59.9569,       337,
   59.9772,       322,
   59.9974,       318,
   60.0176,       324,
   60.0378,       308,
    60.058,       307,
   60.0782,       305,
   60.0985,       303,
   60.1187,       284,
   60.1389,       251,
   60.1591,       301,
   60.1793,       314,
   60.1996,       290,
   60.2198,       289,
     60.24,       290,
   60.2602,       311,
   60.2804,       355,
   60.3007,       342,
   60.3209,       323,
   60.3411,       338,
   60.3613,       388,
   60.3815,       379,
   60.4017,       360,
    60.422,       420,
   60.4422,       395,
   60.4624,       438,
   60.4826,       370,
   60.5028,       402,
   60.5231,       380,
   60.5433,       412,
   60.5635,       435,
   60.5837,       421,
   60.6039,       443,
   60.6242,       460,
   60.6444,       481,
   60.6646,       491,
   60.6848,       423,
    60.705,       359,
   60.7252,       399,
   60.7455,       381,
   60.7657,       369,
   60.7859,       356,
   60.8061,       347,
   60.8263,       340,
   60.8466,       314,
   60.8668,       290,
    60.887,       268,
   60.9072,       246,
   60.9274,       261,
   60.9477,       260,
   60.9679,       259,
   60.9881,       227,
   61.0083,       256,
   61.0285,       271,
   61.0487,       232,
    61.069,       253,
   61.0892,       245,
   61.1094,       239,
   61.1296,       234,
   61.1498,       231,
   61.1701,       248,
   61.1903,       243,
   61.2105,       247,
   61.2307,       238,
   61.2509,       261,
   61.2712,       261,
   61.2914,       227,
   61.3116,       263,
   61.3318,       235,
    61.352,       269,
   61.3722,       242,
   61.3925,       263,
   61.4127,       243,
   61.4329,       240,
   61.4531,       242,
   61.4733,       238,
   61.4936,       241,
   61.5138,       229,
    61.534,       262,
   61.5542,       240,
   61.5744,       252,
   61.5947,       222,
   61.6149,       246,
   61.6351,       233,
   61.6553,       222,
   61.6755,       268,
   61.6957,       277,
    61.716,       288,
   61.7362,       269,
   61.7564,       310,
   61.7766,       350,
   61.7968,       312,
   61.8171,       360,
   61.8373,       408,
   61.8575,       463,
   61.8777,       495,
   61.8979,       600,
   61.9182,       611,
   61.9384,       647,
   61.9586,       630,
   61.9788,       598,
    61.999,       584,
   62.0192,       515,
   62.0395,       513,
   62.0597,       544,
   62.0799,       543,
   62.1001,       490,
   62.1203,       454,
   62.1406,       438,
   62.1608,       408,
    62.181,       371,
   62.2012,       312,
   62.2214,       317,
   62.2417,       289,
   62.2619,       275,
   62.2821,       258,
   62.3023,       277,
   62.3225,       297,
   62.3427,       296,
    62.363,       292,
   62.3832,       283,
   62.4034,       309,
   62.4236,       316,
   62.4438,       275,
   62.4641,       342,
   62.4843,       397,
   62.5045,       383,
   62.5247,       424,
   62.5449,       424,
   62.5652,       459,
   62.5854,       472,
   62.6056,       481,
   62.6258,       497,
    62.646,       446,
   62.6663,       449,
   62.6865,       405,
   62.7067,       421,
   62.7269,       417,
   62.7471,       411,
   62.7673,       351,
   62.7876,       364,
   62.8078,       308,
    62.828,       294,
   62.8482,       294,
   62.8684,       267,
   62.8887,       258,
   62.9089,       253,
   62.9291,       274,
   62.9493,       254,
   62.9695,       187,
   62.9898,       238,
     63.01,       232,
   63.0302,       241,
   63.0504,       227,
   63.0706,       223,
   63.0908,       229,
   63.1111,       213,
   63.1313,       261,
   63.1515,       189,
   63.1717,       204,
   63.1919,       195,
   63.2122,       206,
   63.2324,       224,
   63.2526,       225,
   63.2728,       208,
    63.293,       218,
   63.3133,       223,
   63.3335,       175,
   63.3537,       211,
   63.3739,       220,
   63.3941,       215,
   63.4143,       225,
   63.4346,       231,
   63.4548,       205,
    63.475,       222,
   63.4952,       217,
   63.5154,       244,
   63.5357,       236,
   63.5559,       278,
   63.5761,       229,
   63.5963,       250,
   63.6165,       256,
   63.6368,       255,
    63.657,       280,
   63.6772,       299,
   63.6974,       287,
   63.7176,       326,
   63.7378,       296,
   63.7581,       303,
   63.7783,       270,
   63.7985,       291,
   63.8187,       276,
   63.8389,       274,
   63.8592,       263,
   63.8794,       258,
   63.8996,       236,
   63.9198,       270,
     63.94,       238,
   63.9603,       268,
   63.9805,       219,
   64.0007,       202,
   64.0209,       215,
   64.0411,       202,
   64.0613,       215,
   64.0816,       209,
   64.1018,       202,
    64.122,       190,
   64.1422,       195,
   64.1624,       187,
   64.1827,       195,
   64.2029,       216,
   64.2231,       206,
   64.2433,       221,
   64.2635,       200,
   64.2838,       206,
    64.304,       222,
   64.3242,       252,
   64.3444,       206,
   64.3646,       212,
   64.3848,       204,
   64.4051,       244,
   64.4253,       212,
   64.4455,       214,
   64.4657,       228,
   64.4859,       211,
   64.5062,       238,
   64.5264,       216,
   64.5466,       199,
   64.5668,       208,
    64.587,       214,
   64.6073,       213,
   64.6275,       194,
   64.6477,       212,
   64.6679,       192,
   64.6881,       187,
   64.7083,       214,
   64.7286,       194,
   64.7488,       202,
    64.769,       219,
   64.7892,       203,
   64.8094,       181,
   64.8297,       208,
   64.8499,       201,
   64.8701,       186,
   64.8903,       187,
   64.9105,       200,
   64.9308,       194,
    64.951,       210,
   64.9712,       186,
   64.9914,       205,
   65.0116,       191,
   65.0318,       194,
   65.0521,       228,
   65.0723,       207,
   65.0925,       207,
   65.1127,       200,
   65.1329,       227,
   65.1532,       218,
   65.1734,       257,
   65.1936,       233,
   65.2138,       235,
    65.234,       232,
   65.2543,       252,
   65.2745,       273,
   65.2947,       283,
   65.3149,       273,
   65.3351,       260,
   65.3553,       247,
   65.3756,       249,
   65.3958,       236,
    65.416,       264,
   65.4362,       245,
   65.4564,       237,
   65.4767,       229,
   65.4969,       242,
   65.5171,       216,
   65.5373,       227,
   65.5575,       215,
   65.5778,       203,
    65.598,       192,
   65.6182,       229,
   65.6384,       200,
   65.6586,       197,
   65.6788,       217,
   65.6991,       225,
   65.7193,       213,
   65.7395,       181,
   65.7597,       202,
   65.7799,       192,
   65.8002,       209,
   65.8204,       216,
   65.8406,       201,
   65.8608,       189,
    65.881,       202,
   65.9013,       199,
   65.9215,       212,
   65.9417,       196,
   65.9619,       207,
   65.9821,       191,
   66.0023,       213,
   66.0226,       220,
   66.0428,       249,
    66.063,       236,
   66.0832,       234,
   66.1034,       252,
   66.1237,       244,
   66.1439,       245,
   66.1641,       230,
   66.1843,       239,
   66.2045,       255,
   66.2248,       246,
    66.245,       248,
   66.2652,       256,
   66.2854,       229,
   66.3056,       256,
   66.3258,       227,
   66.3461,       229,
   66.3663,       235,
   66.3865,       262,
   66.4067,       248,
   66.4269,       268,
   66.4472,       267,
   66.4674,       237,
   66.4876,       247,
   66.5078,       243,
    66.528,       242,
   66.5483,       282,
   66.5685,       257,
   66.5887,       252,
   66.6089,       251,
   66.6291,       285,
   66.6493,       283,
   66.6696,       296,
   66.6898,       320,
     66.71,       330,
   66.7302,       388,
   66.7504,       375,
   66.7707,       453,
   66.7909,       518,
   66.8111,       518,
   66.8313,       605,
   66.8515,       640,
   66.8718,       662,
    66.892,       611,
   66.9122,       617,
   66.9324,       629,
   66.9526,       627,
   66.9728,       565,
   66.9931,       638,
   67.0133,       584,
   67.0335,       582,
   67.0537,       566,
   67.0739,       561,
   67.0942,       550,
   67.1144,       535,
   67.1346,       528,
   67.1548,       521,
    67.175,       576,
   67.1953,       595,
   67.2155,       610,
   67.2357,       579,
   67.2559,       553,
   67.2761,       509,
   67.2963,       547,
   67.3166,       497,
   67.3368,       497,
    67.357,       462,
   67.3772,       439,
   67.3974,       419,
   67.4177,       354,
   67.4379,       371,
   67.4581,       360,
   67.4783,       326,
   67.4985,       288,
   67.5188,       286,
    67.539,       258,
   67.5592,       238,
   67.5794,       230,
   67.5996,       229,
   67.6198,       227,
   67.6401,       226,
   67.6603,       203,
   67.6805,       232,
   67.7007,       230,
   67.7209,       213,
   67.7412,       207,
   67.7614,       196,
   67.7816,       206,
   67.8018,       174,
    67.822,       185,
   67.8423,       215,
   67.8625,       210,
   67.8827,       194,
   67.9029,       180,
   67.9231,       194,
   67.9433,       160,
   67.9636,       152,
   67.9838,       205,
    68.004,       195,
   68.0242,       191,
   68.0444,       189,
   68.0647,       203,
   68.0849,       181,
   68.1051,       193,
   68.1253,       204,
   68.1455,       187,
   68.1658,       196,
    68.186,       239,
   68.2062,       210,
   68.2264,       225,
   68.2466,       202,
   68.2668,       190,
   68.2871,       203,
   68.3073,       199,
   68.3275,       200,
   68.3477,       170,
   68.3679,       196,
   68.3882,       197,
   68.4084,       192,
   68.4286,       201,
   68.4488,       176,
    68.469,       164,
   68.4893,       177,
   68.5095,       177,
   68.5297,       183,
   68.5499,       180,
   68.5701,       202,
   68.5903,       159,
   68.6106,       203,
   68.6308,       201,
    68.651,       210,
   68.6712,       194,
   68.6914,       190,
   68.7117,       191,
   68.7319,       184,
   68.7521,       188,
   68.7723,       203,
   68.7925,       197,
   68.8128,       203,
    68.833,       205,
   68.8532,       203,
   68.8734,       236,
   68.8936,       243,
   68.9138,       221,
   68.9341,       270,
   68.9543,       263,
   68.9745,       267,
   68.9947,       291,
   69.0149,       281,
   69.0352,       259,
   69.0554,       255,
   69.0756,       273,
   69.0958,       253,
    69.116,       227,
   69.1363,       234,
   69.1565,       232,
   69.1767,       258,
   69.1969,       211,
   69.2171,       254,
   69.2373,       212,
   69.2576,       196,
   69.2778,       227,
    69.298,       210,
   69.3182,       189,
   69.3384,       200,
   69.3587,       202,
   69.3789,       181,
   69.3991,       171,
   69.4193,       198,
   69.4395,       203,
   69.4598,       182,
     69.48,       184,
   69.5002,       165,
   69.5204,       197,
   69.5406,       194,
   69.5608,       193,
   69.5811,       188,
   69.6013,       196,
   69.6215,       185,
   69.6417,       178,
   69.6619,       191,
   69.6822,       179,
   69.7024,       182,
   69.7226,       176,
   69.7428,       202,
    69.763,       187,
   69.7833,       175,
   69.8035,       191,
   69.8237,       163,
   69.8439,       187,
   69.8641,       168,
   69.8843,       183,
   69.9046,       196,
   69.9248,       181,
    69.945,       189,
   69.9652,       185,
   69.9854,       185,
   70.0057,       207,
